 # inv_tmp, energy, phys_var, phys_doublon, phys_num, step_i
0.0000000000000000  0.0360756730565582 1.0997551685200975 0.0000000000000000 12.0000000000000000 0
0.0416582283323973  -0.0097229301662889 1.0988482518686493 0.0000000000000000 12.0000000000000000 1
0.0832371284354178  -0.0554780683421804 1.1009524973474996 0.0000000000000000 12.0000000000000000 2
0.1247371660716040  -0.1011408945731918 1.1060548955188008 0.0000000000000000 12.0000000000000000 3
0.1661589707808667  -0.1466631768593106 1.1141309022598167 0.0000000000000000 12.0000000000000000 4
0.2075033306244087  -0.1919975448514469 1.1251447023332510 0.0000000000000000 12.0000000000000000 5
0.2487711857889168  -0.2370977247422934 1.1390495753360379 0.0000000000000000 12.0000000000000000 6
0.2899636211579869  -0.2819187596367213 1.1557883571701817 0.0000000000000000 12.0000000000000000 7
0.3310818579712582  -0.3264172130778283 1.1752939886836353 0.0000000000000000 12.0000000000000000 8
0.3721272447020293  -0.3705513537795578 1.1974901418729611 0.0000000000000000 12.0000000000000000 9
0.4131012472910540  -0.4142813200194191 1.2222919130483716 0.0000000000000000 12.0000000000000000 10
0.4540054388777796  -0.4575692625622969 1.2496065716508518 0.0000000000000000 12.0000000000000000 11
0.4948414891705859  -0.5003794654059803 1.2793343529853938 0.0000000000000000 12.0000000000000000 12
0.5356111535948317  -0.5426784440488942 1.3113692829885668 0.0000000000000000 12.0000000000000000 13
0.5763162623520113  -0.5844350213697967 1.3456000232684093 0.0000000000000000 12.0000000000000000 14
0.6169587095154332  -0.6256203815687518 1.3819107250179807 0.0000000000000000 12.0000000000000000 15
0.6575404422779790  -0.6662081029410031 1.4201818809824309 0.0000000000000000 12.0000000000000000 16
0.6980634504561124  -0.7061741705349457 1.4602911654201864 0.0000000000000000 12.0000000000000000 17
0.7385297563418338  -0.7454969699787377 1.5021142529064513 0.0000000000000000 12.0000000000000000 18
0.7789414049811711  -0.7841572639453512 1.5455256078444002 0.0000000000000000 12.0000000000000000 19
0.8193004549444151  -0.8221381528633142 1.5903992376402094 0.0000000000000000 12.0000000000000000 20
0.8596089696400854  -0.8594250215713993 1.6366094036273815 0.0000000000000000 12.0000000000000000 21
0.8998690092118001  -0.8960054736631264 1.6840312849620211 0.0000000000000000 12.0000000000000000 22
0.9400826230451262  -0.9318692552749060 1.7325415918251561 0.0000000000000000 12.0000000000000000 23
0.9802518429002931  -0.9670081700446697 1.7820191253371309 0.0000000000000000 12.0000000000000000 24
1.0203786766765242  -1.0014159869108852 1.8323452825922966 0.0000000000000000 12.0000000000000000 25
1.0604651028047534  -1.0350883423402295 1.8834045061448152 0.0000000000000000 12.0000000000000000 26
1.1005130652577362  -1.0680226384712599 1.9350846781073321 0.0000000000000000 12.0000000000000000 27
1.1405244691599905  -1.1002179385459856 1.9872774597567009 0.0000000000000000 12.0000000000000000 28
1.1805011769746436  -1.1316748608763127 2.0398785781717801 0.0000000000000000 12.0000000000000000 29
1.2204450052400047  -1.1623954724619505 2.0927880619575578 0.0000000000000000 12.0000000000000000 30
1.2603577218254811  -1.1923831832443801 2.1459104285402404 0.0000000000000000 12.0000000000000000 31
1.3002410436742220  -1.2216426418510498 2.1991548258542402 0.0000000000000000 12.0000000000000000 32
1.3400966349984522  -1.2501796335577189 2.2524351314907007 0.0000000000000000 12.0000000000000000 33
1.3799261058928229  -1.2780009810767958 2.3056700125460163 0.0000000000000000 12.0000000000000000 34
1.4197310113310564  -1.3051144486673660 2.3587829495058998 0.0000000000000000 12.0000000000000000 35
1.4595128505116706  -1.3315286499591343 2.4117022275348408 0.0000000000000000 12.0000000000000000 36
1.4992730665194776  -1.3572529597887248 2.4643608985207948 0.0000000000000000 12.0000000000000000 37
1.5390130462708156  -1.3822974302626494 2.5166967171592609 0.0000000000000000 12.0000000000000000 38
1.5787341207119687  -1.4066727111871060 2.5686520542578273 0.0000000000000000 12.0000000000000000 39
1.6184375652419110  -1.4303899749399624 2.6201737903087454 0.0000000000000000 12.0000000000000000 40
1.6581246003323153  -1.4534608458048630 2.6712131922210172 0.0000000000000000 12.0000000000000000 41
1.6977963923196178  -1.4758973337402572 2.7217257759299107 0.0000000000000000 12.0000000000000000 42
1.7374540543458044  -1.4977117725171680 2.7716711574171620 0.0000000000000000 12.0000000000000000 43
1.7770986474264532  -1.5189167621275572 2.8210128944836708 0.0000000000000000 12.0000000000000000 44
1.8167311816263643  -1.5395251153396750 2.8697183214221686 0.0000000000000000 12.0000000000000000 45
1.8563526173248648  -1.5595498082570631 2.9177583785441996 0.0000000000000000 12.0000000000000000 46
1.8959638665545340  -1.5790039347230631 2.9651074383255112 0.0000000000000000 12.0000000000000000 47
1.9355657943986666  -1.5979006644023055 3.0117431297501218 0.0000000000000000 12.0000000000000000 48
1.9751592204342598  -1.6162532043637712 3.0576461622563746 0.0000000000000000 12.0000000000000000 49
2.0147449202086887  -1.6340747639864710 3.1028001505205660 0.0000000000000000 12.0000000000000000 50
2.0543236267394884  -1.6513785230075442 3.1471914411554867 0.0000000000000000 12.0000000000000000 51
2.0938960320278541  -1.6681776025336732 3.1908089422532901 0.0000000000000000 12.0000000000000000 52
2.1334627885775155  -1.6844850388393295 3.2336439565649755 0.0000000000000000 12.0000000000000000 53
2.1730245109116457  -1.7003137597794162 3.2756900189821616 0.0000000000000000 12.0000000000000000 54
2.2125817770813527  -1.7156765636488751 3.3169427388710893 0.0000000000000000 12.0000000000000000 55
2.2521351301601107  -1.7305861003276515 3.3573996477033878 0.0000000000000000 12.0000000000000000 56
2.2916850797192287  -1.7450548545557474 3.3970600523328787 0.0000000000000000 12.0000000000000000 57
2.3312321032801377  -1.7590951311897709 3.4359248941821066 0.0000000000000000 12.0000000000000000 58
2.3707766477398557  -1.7727190422992973 3.4739966145258276 0.0000000000000000 12.0000000000000000 59
2.4103191307665601  -1.7859384959684170 3.5112790259911106 0.0000000000000000 12.0000000000000000 60
2.4498599421626834  -1.7987651866747267 3.5477771903338171 0.0000000000000000 12.0000000000000000 61
2.4893994451933859  -1.8112105871250495 3.5834973024993939 0.0000000000000000 12.0000000000000000 62
2.5289379778786625  -1.8232859414338103 3.6184465809304980 0.0000000000000000 12.0000000000000000 63
2.5684758542477071  -1.8350022595367210 3.6526331640454477 0.0000000000000000 12.0000000000000000 64
2.6080133655544713  -1.8463703127386462 3.6860660127783329 0.0000000000000000 12.0000000000000000 65
2.6475507814536385  -1.8574006303007957 3.7187548190442601 0.0000000000000000 12.0000000000000000 66
2.6870883511365125  -1.8681034969781609 3.7507099199701543 0.0000000000000000 12.0000000000000000 67
2.7266263044265258  -1.8784889514238168 3.7819422177132189 0.0000000000000000 12.0000000000000000 68
2.7661648528342910  -1.8885667853820338 3.8124631046744102 0.0000000000000000 12.0000000000000000 69
2.8057041905723064  -1.8983465435972562 3.8422843939031956 0.0000000000000000 12.0000000000000000 70
2.8452444955295619  -1.9078375243708927 3.8714182544816667 0.0000000000000000 12.0000000000000000 71
2.8847859302064633  -1.9170487807024141 3.8998771516706032 0.0000000000000000 12.0000000000000000 72
2.9243286426105977  -1.9259891219556351 3.9276737915970013 0.0000000000000000 12.0000000000000000 73
2.9638727671139762  -1.9346671159952102 3.9548210702615290 0.0000000000000000 12.0000000000000000 74
3.0034184252724709  -1.9430910917422222 3.9813320266450134 0.0000000000000000 12.0000000000000000 75
3.0429657266082701  -1.9512691421014441 4.0072197996951626 0.0000000000000000 12.0000000000000000 76
3.0825147693562096  -1.9592091272163710 4.0324975889784112 0.0000000000000000 12.0000000000000000 77
3.1220656411749119  -1.9669186780112906 4.0571786187859242 0.0000000000000000 12.0000000000000000 78
3.1616184198237165  -1.9744051999828807 4.0812761054885325 0.0000000000000000 12.0000000000000000 79
3.2011731738063958  -1.9816758772065988 4.1048032279412121 0.0000000000000000 12.0000000000000000 80
3.2407299629827038  -1.9887376765259384 4.1277731007444256 0.0000000000000000 12.0000000000000000 81
3.2802888391488194  -1.9955973518951680 4.1501987501767825 0.0000000000000000 12.0000000000000000 82
3.3198498465877408  -2.0022614488485608 4.1720930926207123 0.0000000000000000 12.0000000000000000 83
3.3594130225907222  -2.0087363090714154 4.1934689153106079 0.0000000000000000 12.0000000000000000 84
3.3989783979508288  -2.0150280750502469 4.2143388592404287 0.0000000000000000 12.0000000000000000 85
3.4385459974296824  -2.0211426947815272 4.2347154040756765 0.0000000000000000 12.0000000000000000 86
3.4781158401984715  -2.0270859265202223 4.2546108549223121 0.0000000000000000 12.0000000000000000 87
3.5176879402542798  -2.0328633435510630 4.2740373308128081 0.0000000000000000 12.0000000000000000 88
3.5572623068127780  -2.0384803389671196 4.2930067547773003 0.0000000000000000 12.0000000000000000 89
3.5968389446782965  -2.0439421304417951 4.3115308453749011 0.0000000000000000 12.0000000000000000 90
3.6364178545922967  -2.0492537649816414 4.3296211095676504 0.0000000000000000 12.0000000000000000 91
3.6759990335612089  -2.0544201236488737 4.3472888368266567 0.0000000000000000 12.0000000000000000 92
3.7155824751645983  -2.0594459262434528 4.3645450943663908 0.0000000000000000 12.0000000000000000 93
3.7551681698445969  -2.0643357359359396 4.3814007234100583 0.0000000000000000 12.0000000000000000 94
3.7947561051775018  -2.0690939638432022 4.3978663363948671 0.0000000000000000 12.0000000000000000 95
3.8343462661284162  -2.0737248735400833 4.4139523150322919 0.0000000000000000 12.0000000000000000 96
3.8739386352897793  -2.0782325855010306 4.4296688091438847 0.0000000000000000 12.0000000000000000 97
3.9135331931046169  -2.0826210814664439 4.4450257361988719 0.0000000000000000 12.0000000000000000 98
3.9531299180752923  -2.0868942087293236 4.4600327814848102 0.0000000000000000 12.0000000000000000 99
3.9927287869585171  -2.0910556843384067 4.4746993988475499 0.0000000000000000 12.0000000000000000 100
4.0323297749473639  -2.0951090992146910 4.4890348119413694 0.0000000000000000 12.0000000000000000 101
4.0719328558409815  -2.0990579221787304 4.5030480159345609 0.0000000000000000 12.0000000000000000 102
4.1115380022026802  -2.1029055038867059 4.5167477796198705 0.0000000000000000 12.0000000000000000 103
4.1511451855070316  -2.1066550806736801 4.5301426478831202 0.0000000000000000 12.0000000000000000 104
4.1907543762766206  -2.1103097783028977 4.5432409444869597 0.0000000000000000 12.0000000000000000 105
4.2303655442090093  -2.1138726156204117 4.5560507751301307 0.0000000000000000 12.0000000000000000 106
4.2699786582945025  -2.1173465081146325 4.5685800307458919 0.0000000000000000 12.0000000000000000 107
4.3095936869252407  -2.1207342713807424 4.5808363910062742 0.0000000000000000 12.0000000000000000 108
4.3492105979961275  -2.1240386244902005 4.5928273280014817 0.0000000000000000 12.0000000000000000 109
4.3888293589980920  -2.1272621932657851 4.6045601100666351 0.0000000000000000 12.0000000000000000 110
4.4284499371041450  -2.1304075134629157 4.6160418057302941 0.0000000000000000 12.0000000000000000 111
4.4680722992486519  -2.1334770338581408 4.6272792877615725 0.0000000000000000 12.0000000000000000 112
4.5076964122002741  -2.1364731192458493 4.6382792372946469 0.0000000000000000 12.0000000000000000 113
4.5473222426289492  -2.1393980533444865 4.6490481480117181 0.0000000000000000 12.0000000000000000 114
4.5869497571672859  -2.1422540416136289 4.6595923303668103 0.0000000000000000 12.0000000000000000 115
4.6265789224667504  -2.1450432139834135 4.6699179158350752 0.0000000000000000 12.0000000000000000 116
4.6662097052489555  -2.1477676274978781 4.6800308611732024 0.0000000000000000 12.0000000000000000 117
4.7058420723523939  -2.1504292688739688 4.6899369526786048 0.0000000000000000 12.0000000000000000 118
4.7454759907748940  -2.1530300569778489 4.6996418104357023 0.0000000000000000 12.0000000000000000 119
4.7851114277121098  -2.1555718452204236 4.7091508925395447 0.0000000000000000 12.0000000000000000 120
4.8247483505922819  -2.1580564238738589 4.7184694992875666 0.0000000000000000 12.0000000000000000 121
4.8643867271075507  -2.1604855223109816 4.7276027773315752 0.0000000000000000 12.0000000000000000 122
4.9040265252420445  -2.1628608111695278 4.7365557237830771 0.0000000000000000 12.0000000000000000 123
4.9436677132969686  -2.1651839044430812 4.7453331902656650 0.0000000000000000 12.0000000000000000 124
4.9833102599129147  -2.1674563615007179 4.7539398869092757 0.0000000000000000 12.0000000000000000 125
5.0229541340895878  -2.1696796890372365 4.7623803862815848 0.0000000000000000 12.0000000000000000 126
5.0625993052031166  -2.1718553429559440 4.7706591272527685 0.0000000000000000 12.0000000000000000 127
5.1022457430211663  -2.1739847301859010 4.7787804187900873 0.0000000000000000 12.0000000000000000 128
5.1418934177159796  -2.1760692104355561 4.7867484436797723 0.0000000000000000 12.0000000000000000 129
5.1815422998755158  -2.1781100978846415 4.7945672621736311 0.0000000000000000 12.0000000000000000 130
5.2211923605128367  -2.1801086628162012 4.8022408155588785 0.0000000000000000 12.0000000000000000 131
5.2608435710738775  -2.1820661331906135 4.8097729296494780 0.0000000000000000 12.0000000000000000 132
5.3004959034437089  -2.1839836961634038 4.8171673181981767 0.0000000000000000 12.0000000000000000 133
5.3401493299514442  -2.1858624995486400 4.8244275862283938 0.0000000000000000 12.0000000000000000 134
5.3798038233738774  -2.1877036532296539 4.8315572332856407 0.0000000000000000 12.0000000000000000 135
5.4194593569379625  -2.1895082305188045 4.8385596566082540 0.0000000000000000 12.0000000000000000 136
5.4591159043222408  -2.1912772694679798 4.8454381542176286 0.0000000000000000 12.0000000000000000 137
5.4987734396572971  -2.1930117741314472 4.8521959279282116 0.0000000000000000 12.0000000000000000 138
5.5384319375253392  -2.1947127157826758 4.8588360862778197 0.0000000000000000 12.0000000000000000 139
5.5780913729589638  -2.1963810340866989 4.8653616473788830 0.0000000000000000 12.0000000000000000 140
5.6177517214392152  -2.1980176382295258 4.8717755416915658 0.0000000000000000 12.0000000000000000 141
5.6574129588929605  -2.1996234080060866 4.8780806147195737 0.0000000000000000 12.0000000000000000 142
5.6970750616896906  -2.2011991948681700 4.8842796296298596 0.0000000000000000 12.0000000000000000 143
5.7367380066377791  -2.2027458229337444 4.8903752697972864 0.0000000000000000 12.0000000000000000 144
5.7764017709802618  -2.2042640899590200 4.8963701412755984 0.0000000000000000 12.0000000000000000 145
5.8160663323901867  -2.2057547682746006 4.9022667751959350 0.0000000000000000 12.0000000000000000 146
5.8557316689655972  -2.2072186056869860 4.9080676300943509 0.0000000000000000 12.0000000000000000 147
5.8953977592241591  -2.2086563263466621 4.9137750941697149 0.0000000000000000 12.0000000000000000 148
5.9350645820975174  -2.2100686315840354 4.9193914874735123 0.0000000000000000 12.0000000000000000 149
5.9747321169253826  -2.2114562007143213 4.9249190640330189 0.0000000000000000 12.0000000000000000 150
6.0144003434493971  -2.2128196918125438 4.9303600139093859 0.0000000000000000 12.0000000000000000 151
6.0540692418068227  -2.2141597424597470 4.9357164651921828 0.0000000000000000 12.0000000000000000 152
6.0937387925240669  -2.2154769704614758 4.9409904859319749 0.0000000000000000 12.0000000000000000 153
6.1334089765100686  -2.2167719745395398 4.9461840860124315 0.0000000000000000 12.0000000000000000 154
6.1730797750495920  -2.2180453349980573 4.9512992189636051 0.0000000000000000 12.0000000000000000 155
6.2127511697964399  -2.2192976143647192 4.9563377837178733 0.0000000000000000 12.0000000000000000 156
6.2524231427665953  -2.2205293580082466 4.9613016263101226 0.0000000000000000 12.0000000000000000 157
6.2920956763313285  -2.2217410947328555 4.9661925415236734 0.0000000000000000 12.0000000000000000 158
6.3317687532102855  -2.2229333373506472 4.9710122744834964 0.0000000000000000 12.0000000000000000 159
6.3714423564645672  -2.2241065832327509 4.9757625221982202 0.0000000000000000 12.0000000000000000 160
6.4111164694898068  -2.2252613148399933 4.9804449350524038 0.0000000000000000 12.0000000000000000 161
6.4507910760093026  -2.2263980002338553 4.9850611182504325 0.0000000000000000 12.0000000000000000 162
6.4904661600671325  -2.2275170935685380 4.9896126332137110 0.0000000000000000 12.0000000000000000 163
6.5301417060213636  -2.2286190355647499 4.9941009989322680 0.0000000000000000 12.0000000000000000 164
6.5698176985372987  -2.2297042539659850 4.9985276932723588 0.0000000000000000 12.0000000000000000 165
6.6094941225807711  -2.2307731639779211 5.0028941542413436 0.0000000000000000 12.0000000000000000 166
6.6491709634115388  -2.2318261686915868 5.0072017812111449 0.0000000000000000 12.0000000000000000 167
6.6888482065767452  -2.2328636594909241 5.0114519361016177 0.0000000000000000 12.0000000000000000 168
6.7285258379044599  -2.2338860164453411 5.0156459445250929 0.0000000000000000 12.0000000000000000 169
6.7682038434973277  -2.2348936086877829 5.0197850968932682 0.0000000000000000 12.0000000000000000 170
6.8078822097262996  -2.2358867947789571 5.0238706494877219 0.0000000000000000 12.0000000000000000 171
6.8475609232244681  -2.2368659230581738 5.0279038254952066 0.0000000000000000 12.0000000000000000 172
6.8872399708810077  -2.2378313319813214 5.0318858160088027 0.0000000000000000 12.0000000000000000 173
6.9269193398352282  -2.2387833504465102 5.0358177809961200 0.0000000000000000 12.0000000000000000 174
6.9665990174707266  -2.2397222981078029 5.0397008502356107 0.0000000000000000 12.0000000000000000 175
7.0062789914096610  -2.2406484856775193 5.0435361242219710 0.0000000000000000 12.0000000000000000 176
7.0459592495071295  -2.2415622152175501 5.0473246750417688 0.0000000000000000 12.0000000000000000 177
7.0856397798456738  -2.2424637804200804 5.0510675472201889 0.0000000000000000 12.0000000000000000 178
7.1253205707298903  -2.2433534668781672 5.0547657585399328 0.0000000000000000 12.0000000000000000 179
7.1650016106811645  -2.2442315523464953 5.0584203008331139 0.0000000000000000 12.0000000000000000 180
7.2046828884325116  -2.2450983069927508 5.0620321407471538 0.0000000000000000 12.0000000000000000 181
7.2443643929235479  -2.2459539936399557 5.0656022204855224 0.0000000000000000 12.0000000000000000 182
7.2840461132955685  -2.2467988680000581 5.0691314585241045 0.0000000000000000 12.0000000000000000 183
7.3237280388867463  -2.2476331788991928 5.0726207503041341 0.0000000000000000 12.0000000000000000 184
7.3634101592274419  -2.2484571684948547 5.0760709689023740 0.0000000000000000 12.0000000000000000 185
7.4030924640356304  -2.2492710724853646 5.0794829656794560 0.0000000000000000 12.0000000000000000 186
7.4427749432124450  -2.2500751203118385 5.0828575709069170 0.0000000000000000 12.0000000000000000 187
7.4824575868378238  -2.2508695353530288 5.0861955943739439 0.0000000000000000 12.0000000000000000 188
7.5221403851662867  -2.2516545351132584 5.0894978259742132 0.0000000000000000 12.0000000000000000 189
7.5618233286227898  -2.2524303314037080 5.0927650362737538 0.0000000000000000 12.0000000000000000 190
7.6015064077987216  -2.2531971305173486 5.0959979770603239 0.0000000000000000 12.0000000000000000 191
7.6411896134479909  -2.2539551333977168 5.0991973818750740 0.0000000000000000 12.0000000000000000 192
7.6808729364832100  -2.2547045358017885 5.1023639665269371 0.0000000000000000 12.0000000000000000 193
7.7205563679720024  -2.2554455284571646 5.1054984295905124 0.0000000000000000 12.0000000000000000 194
7.7602398991333867  -2.2561782972138085 5.1086014528878705 0.0000000000000000 12.0000000000000000 195
