 # inv_tmp, energy, phys_var, phys_doublon, phys_num, step_i
0.0000000000000000  0.0095413048933689 1.1331722147971657 0.0000000000000000 12.0000000000000000 0
0.0416340080462521  -0.0376522428048574 1.1326472336827302 0.0000000000000000 12.0000000000000000 1
0.0831865279920814  -0.0847091055508629 1.1352811506695684 0.0000000000000000 12.0000000000000000 2
0.1246582882153793  -0.1315770166317016 1.1410452752278160 0.0000000000000000 12.0000000000000000 3
0.1660501881828911  -0.1782049604703453 1.1498982704433034 0.0000000000000000 12.0000000000000000 4
0.2073632903548279  -0.2245434227465678 1.1617866654162561 0.0000000000000000 12.0000000000000000 5
0.2485988110174353  -0.2705446212226150 1.1766454764647216 0.0000000000000000 12.0000000000000000 6
0.2897581101909594  -0.3161627150783666 1.1943989250812233 0.0000000000000000 12.0000000000000000 7
0.3308426807689233  -0.3613539910081356 1.2149612392906157 0.0000000000000000 12.0000000000000000 8
0.3718541370493605  -0.4060770247949449 1.2382375241286439 0.0000000000000000 12.0000000000000000 9
0.4127942028197138  -0.4502928175445314 1.2641246864106486 0.0000000000000000 12.0000000000000000 10
0.4536646991547451  -0.4939649062176487 1.2925123987808909 0.0000000000000000 12.0000000000000000 11
0.4944675320813008  -0.5370594485340148 1.3232840882056500 0.0000000000000000 12.0000000000000000 12
0.5352046802555382  -0.5795452827244854 1.3563179345672647 0.0000000000000000 12.0000000000000000 13
0.5758781827876791  -0.6213939629717495 1.3914878657931100 0.0000000000000000 12.0000000000000000 14
0.6164901273369805  -0.6625797716978807 1.4286645369685751 0.0000000000000000 12.0000000000000000 15
0.6570426385858953  -0.7030797101254437 1.4677162820877179 0.0000000000000000 12.0000000000000000 16
0.6975378671877907  -0.7428734687554118 1.5085100284399555 0.0000000000000000 12.0000000000000000 17
0.7379779792675737  -0.7819433795696518 1.5509121650663933 0.0000000000000000 12.0000000000000000 18
0.7783651465395154  -0.8202743518794560 1.5947893581986265 0.0000000000000000 12.0000000000000000 19
0.8187015370918707  -0.8578537938074029 1.6400093080733780 0.0000000000000000 12.0000000000000000 20
0.8589893068738174  -0.8946715214112153 1.6864414429600645 0.0000000000000000 12.0000000000000000 21
0.8992305919070919  -0.9307196574402846 1.7339575476138402 0.0000000000000000 12.0000000000000000 22
0.9394275012326013  -0.9659925216628766 1.7824323246473830 0.0000000000000000 12.0000000000000000 23
0.9795821105914529  -1.0004865146205182 1.8317438884816446 0.0000000000000000 12.0000000000000000 24
1.0196964568302693  -1.0341999965609547 1.8817741925747868 0.0000000000000000 12.0000000000000000 25
1.0597725330124443  -1.0671331631779404 1.9324093915318710 0.0000000000000000 12.0000000000000000 26
1.0998122842101099  -1.0992879196498913 1.9835401404623538 0.0000000000000000 12.0000000000000000 27
1.1398176039459673  -1.1306677543248933 2.0350618345792313 0.0000000000000000 12.0000000000000000 28
1.1797903312497839  -1.1612776132510159 2.0868747925279565 0.0000000000000000 12.0000000000000000 29
1.2197322482910982  -1.1911237766016292 2.1388843873022609 0.0000000000000000 12.0000000000000000 30
1.2596450785474866  -1.2202137378991071 2.1910011288580371 0.0000000000000000 12.0000000000000000 31
1.2995304854664582  -1.2485560867989995 2.2431407026866070 0.0000000000000000 12.0000000000000000 32
1.3393900715785807  -1.2761603960626604 2.2952239686669409 0.0000000000000000 12.0000000000000000 33
1.3792253780196659  -1.3030371132211047 2.3471769244958041 0.0000000000000000 12.0000000000000000 34
1.4190378844206508  -1.3291974573172325 2.3989306379072066 0.0000000000000000 12.0000000000000000 35
1.4588290091251077  -1.3546533210084719 2.4504211517501493 0.0000000000000000 12.0000000000000000 36
1.4986001096959725  -1.3794171782175499 2.5015893658080510 0.0000000000000000 12.0000000000000000 37
1.5383524836750475  -1.4035019974354479 2.5523808990241084 0.0000000000000000 12.0000000000000000 38
1.5780873695610027  -1.4269211607075223 2.6027459355543447 0.0000000000000000 12.0000000000000000 39
1.6178059479738902  -1.4496883882708551 2.6526390578119279 0.0000000000000000 12.0000000000000000 40
1.6575093429765928  -1.4718176687574791 2.7020190693999186 0.0000000000000000 12.0000000000000000 41
1.6971986235260164  -1.4933231948336920 2.7508488105610476 0.0000000000000000 12.0000000000000000 42
1.7368748050292377  -1.5142193041094374 2.7990949685074078 0.0000000000000000 12.0000000000000000 43
1.7765388509821560  -1.5345204251229063 2.8467278847342796 0.0000000000000000 12.0000000000000000 44
1.8161916746704565  -1.5542410281834838 2.8937213611737524 0.0000000000000000 12.0000000000000000 45
1.8558341409148491  -1.5733955808399120 2.9400524668080119 0.0000000000000000 12.0000000000000000 46
1.8954670678445986  -1.5919985077296308 2.9857013461406487 0.0000000000000000 12.0000000000000000 47
1.9350912286852642  -1.6100641545588164 3.0306510307185022 0.0000000000000000 12.0000000000000000 48
1.9747073535483510  -1.6276067559599776 3.0748872547067974 0.0000000000000000 12.0000000000000000 49
2.0143161312122388  -1.6446404069746672 3.1183982753468893 0.0000000000000000 12.0000000000000000 50
2.0539182108852350  -1.6611790379122260 3.1611746989690568 0.0000000000000000 12.0000000000000000 51
2.0935142039430001  -1.6772363923409932 3.2032093130913735 0.0000000000000000 12.0000000000000000 52
2.1331046856338336  -1.6928260079758000 3.2444969250098579 0.0000000000000000 12.0000000000000000 53
2.1726901967464145  -1.7079612002342035 3.2850342071736316 0.0000000000000000 12.0000000000000000 54
2.2122712452356348  -1.7226550482436975 3.3248195495409303 0.0000000000000000 12.0000000000000000 55
2.2518483078030096  -1.7369203830925706 3.3638529190267157 0.0000000000000000 12.0000000000000000 56
2.2914218314289871  -1.7507697781280103 3.4021357260791589 0.0000000000000000 12.0000000000000000 57
2.3309922348551493  -1.7642155411162825 3.4396706983594436 0.0000000000000000 12.0000000000000000 58
2.3705599100149044  -1.7772697080910769 3.4764617614464535 0.0000000000000000 12.0000000000000000 59
2.4101252234118249  -1.7899440387273371 3.5125139264434706 0.0000000000000000 12.0000000000000000 60
2.4496885174452192  -1.8022500130889385 3.5478331843278434 0.0000000000000000 12.0000000000000000 61
2.4892501116829182  -1.8141988296092899 3.5824264068549287 0.0000000000000000 12.0000000000000000 62
2.5288103040816075  -1.8258014041743813 3.6163012538046746 0.0000000000000000 12.0000000000000000 63
2.5683693721553040  -1.8370683701877160 3.6494660863412376 0.0000000000000000 12.0000000000000000 64
2.6079275740928010  -1.8480100795061705 3.6819298862431129 0.0000000000000000 12.0000000000000000 65
2.6474851498251120  -1.8586366041447588 3.7137021807523451 0.0000000000000000 12.0000000000000000 66
2.6870423220441042  -1.8689577386569209 3.7447929727858194 0.0000000000000000 12.0000000000000000 67
2.7265992971736028  -1.8789830031049353 3.7752126762495681 0.0000000000000000 12.0000000000000000 68
2.7661562662943813  -1.8887216465426122 3.8049720561969287 0.0000000000000000 12.0000000000000000 69
2.8057134060245019  -1.8981826509394337 3.8340821735737549 0.0000000000000000 12.0000000000000000 70
2.8452708793565202  -1.9073747354819142 3.8625543342980770 0.0000000000000000 12.0000000000000000 71
2.8848288364531087  -1.9163063611939344 3.8904000424268870 0.0000000000000000 12.0000000000000000 72
2.9243874154026663  -1.9249857358235447 3.9176309571695165 0.0000000000000000 12.0000000000000000 73
2.9639467429364785  -1.9334208189488558 3.9442588535146252 0.0000000000000000 12.0000000000000000 74
3.0035069351089927  -1.9416193272604239 3.9702955862459923 0.0000000000000000 12.0000000000000000 75
3.0430680979427587  -1.9495887399819745 3.9957530571309663 0.0000000000000000 12.0000000000000000 76
3.0826303280395466  -1.9573363043952945 4.0206431850747633 0.0000000000000000 12.0000000000000000 77
3.1221937131591360  -1.9648690414388761 4.0449778790427864 0.0000000000000000 12.0000000000000000 78
3.1617583327672434  -1.9721937513531538 4.0687690135626404 0.0000000000000000 12.0000000000000000 79
3.2013242585539805  -1.9793170193484428 4.0920284066270085 0.0000000000000000 12.0000000000000000 80
3.2408915549242434  -1.9862452212742383 4.1147677998275167 0.0000000000000000 12.0000000000000000 81
3.2804602794613453  -1.9929845292712907 4.1369988405592304 0.0000000000000000 12.0000000000000000 82
3.3200304833651844  -1.9995409173901089 4.1587330661440456 0.0000000000000000 12.0000000000000000 83
3.3596022118661919  -2.0059201671615030 4.1799818897301115 0.0000000000000000 12.0000000000000000 84
3.3991755046162369  -2.0121278731069303 4.2007565878327489 0.0000000000000000 12.0000000000000000 85
3.4387503960576455  -2.0181694481778507 4.2210682893905158 0.0000000000000000 12.0000000000000000 86
3.4783269157714307  -2.0240501291149888 4.2409279662177664 0.0000000000000000 12.0000000000000000 87
3.5179050888057808  -2.0297749817197319 4.2603464247426404 0.0000000000000000 12.0000000000000000 88
3.5574849359858143  -2.0353489060311252 4.2793342989264520 0.0000000000000000 12.0000000000000000 89
3.5970664742055671  -2.0407766414030579 4.2979020442673077 0.0000000000000000 12.0000000000000000 90
3.6366497167031353  -2.0460627714772270 4.3160599327972546 0.0000000000000000 12.0000000000000000 91
3.6762346733198390  -2.0512117290483105 4.3338180489882987 0.0000000000000000 12.0000000000000000 92
3.7158213507442523  -2.0562278008186636 4.3511862864885593 0.0000000000000000 12.0000000000000000 93
3.7554097527419050  -2.0611151320404293 4.3681743456151931 0.0000000000000000 12.0000000000000000 94
3.7949998803714000  -2.0658777310437091 4.3847917315359926 0.0000000000000000 12.0000000000000000 95
3.8345917321876781  -2.0705194736498940 4.4010477530763445 0.0000000000000000 12.0000000000000000 96
3.8741853044331234  -2.0750441074698114 4.4169515220929121 0.0000000000000000 12.0000000000000000 97
3.9137805912171562  -2.0794552560866624 4.4325119533595343 0.0000000000000000 12.0000000000000000 98
3.9533775846849397  -2.0837564231243020 4.4477377649151926 0.0000000000000000 12.0000000000000000 99
3.9929762751757867  -2.0879509962014988 4.4626374788272898 0.0000000000000000 12.0000000000000000 100
4.0325766513718406  -2.0920422507732526 4.4772194223273001 0.0000000000000000 12.0000000000000000 101
4.0721787004375543  -2.0960333538604963 4.4914917292791419 0.0000000000000000 12.0000000000000000 102
4.1117824081504679  -2.0999273676695953 4.5054623419435220 0.0000000000000000 12.0000000000000000 103
4.1513877590237866  -2.1037272531034055 4.5191390130046472 0.0000000000000000 12.0000000000000000 104
4.1909947364212012  -2.1074358731656186 4.5325293078282272 0.0000000000000000 12.0000000000000000 105
4.2306033226643738  -2.1110559962604638 4.5456406069222393 0.0000000000000000 12.0000000000000000 106
4.2702134991335257  -2.1145902993897163 4.5584801085742823 0.0000000000000000 12.0000000000000000 107
4.3098252463614974  -2.1180413712492401 4.5710548316415380 0.0000000000000000 12.0000000000000000 108
4.3494385441216581  -2.1214117152272034 4.5833716184712756 0.0000000000000000 12.0000000000000000 109
4.3890533715100002  -2.1247037523063108 4.5954371379318779 0.0000000000000000 12.0000000000000000 110
4.4286697070217835  -2.1279198238722983 4.6072578885359947 0.0000000000000000 12.0000000000000000 111
4.4682875286230006  -2.1310621944309998 4.6188402016389816 0.0000000000000000 12.0000000000000000 112
4.5079068138169918  -2.1341330542364156 4.6301902446974958 0.0000000000000000 12.0000000000000000 113
4.5475275397064872  -2.1371345218320266 4.6413140245743101 0.0000000000000000 12.0000000000000000 114
4.5871496830513276  -2.1400686465077894 4.6522173908767588 0.0000000000000000 12.0000000000000000 115
4.6267732203221286  -2.1429374106750605 4.6629060393174147 0.0000000000000000 12.0000000000000000 116
4.6663981277501341  -2.1457427321618621 4.6733855150867063 0.0000000000000000 12.0000000000000000 117
4.7060243813734646  -2.1484864664306782 4.6836612162281543 0.0000000000000000 12.0000000000000000 118
4.7456519570799971  -2.1511704087211565 4.6937383970079356 0.0000000000000000 12.0000000000000000 119
4.7852808306470616  -2.1537962961198676 4.7036221712711583 0.0000000000000000 12.0000000000000000 120
4.8249109777781580  -2.1563658095593645 4.7133175157782405 0.0000000000000000 12.0000000000000000 121
4.8645423741368621  -2.1588805757487135 4.7228292735153934 0.0000000000000000 12.0000000000000000 122
4.9041749953781153  -2.1613421690375909 4.7321621569738728 0.0000000000000000 12.0000000000000000 123
4.9438088171770227  -2.1637521132160491 4.7413207513933369 0.0000000000000000 12.0000000000000000 124
4.9834438152553497  -2.1661118832519826 4.7503095179651735 0.0000000000000000 12.0000000000000000 125
5.0230799654058433  -2.1684229069682930 4.7591327969922030 0.0000000000000000 12.0000000000000000 126
5.0627172435145109  -2.1706865666616979 4.7677948110016075 0.0000000000000000 12.0000000000000000 127
5.1023556255809979  -2.1729042006650845 4.7762996678084422 0.0000000000000000 12.0000000000000000 128
5.1419950877371807  -2.1750771048552471 4.7846513635273302 0.0000000000000000 12.0000000000000000 129
5.1816356062640851  -2.1772065341078317 4.7928537855305233 0.0000000000000000 12.0000000000000000 130
5.2212771576072372  -2.1792937037012474 4.8009107153506294 0.0000000000000000 12.0000000000000000 131
5.2609197183905758  -2.1813397906712466 4.8088258315267769 0.0000000000000000 12.0000000000000000 132
5.3005632654289752  -2.1833459351178242 4.8166027123931432 0.0000000000000000 12.0000000000000000 133
5.3402077757395077  -2.1853132414660745 4.8242448388090260 0.0000000000000000 12.0000000000000000 134
5.3798532265515249  -2.1872427796825691 4.8317555968300177 0.0000000000000000 12.0000000000000000 135
5.4194995953156226  -2.1891355864487680 4.8391382803198093 0.0000000000000000 12.0000000000000000 136
5.4591468597115771  -2.1909926662929529 4.8463960935025154 0.0000000000000000 12.0000000000000000 137
5.4987949976553328  -2.1928149926821141 4.8535321534554923 0.0000000000000000 12.0000000000000000 138
5.5384439873050821  -2.1946035090751748 4.8605494925428134 0.0000000000000000 12.0000000000000000 139
5.5780938070665362  -2.1963591299389065 4.8674510607896444 0.0000000000000000 12.0000000000000000 140
5.6177444355974115  -2.1980827417278395 4.8742397281979351 0.0000000000000000 12.0000000000000000 141
5.6573958518112146  -2.1997752038294163 4.8809182870038921 0.0000000000000000 12.0000000000000000 142
5.6970480348803658  -2.2014373494756385 4.8874894538779170 0.0000000000000000 12.0000000000000000 143
5.7367009642387110  -2.2030699866223649 4.8939558720675205 0.0000000000000000 12.0000000000000000 144
5.7763546195834694  -2.2046738987973971 4.9003201134841188 0.0000000000000000 12.0000000000000000 145
5.8160089808766697  -2.2062498459185185 4.9065846807344027 0.0000000000000000 12.0000000000000000 146
5.8556640283460935  -2.2077985650824683 4.9127520090972592 0.0000000000000000 12.0000000000000000 147
5.8953197424857953  -2.2093207713259519 4.9188244684469673 0.0000000000000000 12.0000000000000000 148
5.9349761040562061  -2.2108171583596672 4.9248043651238387 0.0000000000000000 12.0000000000000000 149
5.9746330940838748  -2.2122883992763009 4.9306939437531225 0.0000000000000000 12.0000000000000000 150
6.0142906938608585  -2.2137351472334386 4.9364953890132206 0.0000000000000000 12.0000000000000000 151
6.0539488849438241  -2.2151580361122982 4.9422108273542831 0.0000000000000000 12.0000000000000000 152
6.0936076491528492  -2.2165576811531280 4.9478423286681750 0.0000000000000000 12.0000000000000000 153
6.1332669685699761  -2.2179346795681472 4.9533919079108815 0.0000000000000000 12.0000000000000000 154
6.1729268255375329  -2.2192896111327953 4.9588615266784677 0.0000000000000000 12.0000000000000000 155
6.2125872026562501  -2.2206230387561336 4.9642530947376091 0.0000000000000000 12.0000000000000000 156
6.2522480827831801  -2.2219355090310651 4.9695684715117521 0.0000000000000000 12.0000000000000000 157
6.2919094490294576  -2.2232275527652101 4.9748094675240591 0.0000000000000000 12.0000000000000000 158
6.3315712847579020  -2.2244996854930337 4.9799778457980670 0.0000000000000000 12.0000000000000000 159
6.3712335735804997  -2.2257524079699835 4.9850753232173259 0.0000000000000000 12.0000000000000000 160
6.4108962993557510  -2.2269862066492481 4.9901035718448323 0.0000000000000000 12.0000000000000000 161
6.4505594461859292  -2.2282015541417808 4.9950642202034645 0.0000000000000000 12.0000000000000000 162
6.4902229984142474  -2.2293989096601816 4.9999588545184288 0.0000000000000000 12.0000000000000000 163
6.5298869406219433  -2.2305787194470761 5.0047890199226730 0.0000000000000000 12.0000000000000000 164
6.5695512576253146  -2.2317414171884500 5.0095562216262888 0.0000000000000000 12.0000000000000000 165
6.6092159344726777  -2.2328874244126129 5.0142619260509793 0.0000000000000000 12.0000000000000000 166
6.6488809564413023  -2.2340171508752151 5.0189075619304404 0.0000000000000000 12.0000000000000000 167
6.6885463090343107  -2.2351309949308744 5.0234945213776809 0.0000000000000000 12.0000000000000000 168
6.7282119779775362  -2.2362293438918925 5.0280241609201815 0.0000000000000000 12.0000000000000000 169
6.7678779492163796  -2.2373125743745073 5.0324978025039151 0.0000000000000000 12.0000000000000000 170
6.8075442089126517  -2.2383810526331684 5.0369167344669323 0.0000000000000000 12.0000000000000000 171
6.8472107434414031  -2.2394351348832413 5.0412822124836163 0.0000000000000000 12.0000000000000000 172
6.8868775393877648  -2.2404751676126096 5.0455954604802988 0.0000000000000000 12.0000000000000000 173
6.9265445835437962  -2.2415014878824797 5.0498576715231822 0.0000000000000000 12.0000000000000000 174
6.9662118629053449  -2.2425144236179118 5.0540700086793455 0.0000000000000000 12.0000000000000000 175
7.0058793646689157  -2.2435142938883361 5.0582336058516297 0.0000000000000000 12.0000000000000000 176
7.0455470762285728  -2.2445014091784961 5.0623495685882318 0.0000000000000000 12.0000000000000000 177
7.0852149851728647  -2.2454760716501121 5.0664189748677435 0.0000000000000000 12.0000000000000000 178
7.1248830792817692  -2.2464385753946337 5.0704428758603806 0.0000000000000000 12.0000000000000000 179
7.1645513465236803  -2.2473892066774050 5.0744222966661079 0.0000000000000000 12.0000000000000000 180
7.2042197750524224  -2.2483282441735151 5.0783582370304217 0.0000000000000000 12.0000000000000000 181
7.2438883532043095  -2.2492559591957089 5.0822516720384643 0.0000000000000000 12.0000000000000000 182
7.2835570694952301  -2.2501726159145430 5.0861035527880265 0.0000000000000000 12.0000000000000000 183
7.3232259126177910  -2.2510784715711685 5.0899148070423141 0.0000000000000000 12.0000000000000000 184
7.3628948714384821  -2.2519737766829464 5.0936863398628978 0.0000000000000000 12.0000000000000000 185
7.4025639349949079  -2.2528587752421645 5.0974190342235408 0.0000000000000000 12.0000000000000000 186
7.4422330924930371  -2.2537337049081234 5.1011137516055998 0.0000000000000000 12.0000000000000000 187
7.4819023333045349  -2.2545987971927861 5.1047713325753179 0.0000000000000000 12.0000000000000000 188
7.5215716469641007  -2.2554542776402990 5.1083925973439461 0.0000000000000000 12.0000000000000000 189
7.5612410231668843  -2.2563003660005152 5.1119783463108277 0.0000000000000000 12.0000000000000000 190
7.6009104517659392  -2.2571372763967981 5.1155293605903536 0.0000000000000000 12.0000000000000000 191
7.6405799227697191  -2.2579652174882980 5.1190464025230327 0.0000000000000000 12.0000000000000000 192
7.6802494263396373  -2.2587843926268607 5.1225302161712758 0.0000000000000000 12.0000000000000000 193
7.7199189527876584  -2.2595950000088338 5.1259815278004472 0.0000000000000000 12.0000000000000000 194
7.7595884925739460  -2.2603972328218660 5.1294010463455084 0.0000000000000000 12.0000000000000000 195
