 # inv_tmp, energy, phys_var, phys_doublon, phys_num, step_i
0.0000000000000000  -0.0199579547449086 1.1240110395926335 0.0000000000000000 12.0000000000000000 0
0.0416088100903252  -0.0667434530898917 1.1276829043088565 0.0000000000000000 12.0000000000000000 1
0.0831368275986961  -0.1134548374652580 1.1345046352178940 0.0000000000000000 12.0000000000000000 2
0.1245846087481478  -0.1600420813554209 1.1444482755897736 0.0000000000000000 12.0000000000000000 3
0.1659528764439996  -0.2064557808347471 1.1574736025069152 0.0000000000000000 12.0000000000000000 4
0.2072425149495774  -0.2526473992704889 1.1735285081886220 0.0000000000000000 12.0000000000000000 5
0.2484545634316398  -0.2985695020317080 1.1925494883532533 0.0000000000000000 12.0000000000000000 6
0.2895902084709055  -0.3441759786106487 1.2144622293527598 0.0000000000000000 12.0000000000000000 7
0.3306507756466973  -0.3894222498244349 1.2391822842975848 0.0000000000000000 12.0000000000000000 8
0.3716377203156572  -0.4342654580686131 1.2666158271317518 0.0000000000000000 12.0000000000000000 9
0.4125526177125603  -0.4786646389302397 1.2966604726436159 0.0000000000000000 12.0000000000000000 10
0.4533971525063775  -0.5225808728266073 1.3292061497228174 0.0000000000000000 12.0000000000000000 11
0.4941731079469360  -0.5659774157057291 1.3641360148025543 0.0000000000000000 12.0000000000000000 12
0.5348823547368954  -0.6088198082159695 1.4013273923529759 0.0000000000000000 12.0000000000000000 13
0.5755268397605084  -0.6510759631149847 1.4406527295009253 0.0000000000000000 12.0000000000000000 14
0.6161085747950115  -0.6927162310335520 1.4819805523202738 0.0000000000000000 12.0000000000000000 15
0.6566296253228213  -0.7337134450303202 1.5251764120358260 0.0000000000000000 12.0000000000000000 16
0.6970920995533451  -0.7740429446627863 1.5701038102772784 0.0000000000000000 12.0000000000000000 17
0.7374981377525083  -0.8136825805531509 1.6166250935700464 0.0000000000000000 12.0000000000000000 18
0.7778499019664644  -0.8526127006419491 1.6646023084173103 0.0000000000000000 12.0000000000000000 19
0.8181495662137137  -0.8908161194958852 1.7138980095731042 0.0000000000000000 12.0000000000000000 20
0.8583993072073868  -0.9282780721687243 1.7643760153917059 0.0000000000000000 12.0000000000000000 21
0.8986012956570618  -0.9649861542064399 1.8159021054288800 0.0000000000000000 12.0000000000000000 22
0.9387576881874333  -1.0009302494421675 1.8683446567343773 0.0000000000000000 12.0000000000000000 23
0.9788706198996895  -1.0361024472456182 1.9215752164851541 0.0000000000000000 12.0000000000000000 24
1.0189421975907702  -1.0704969508791622 1.9754690097428196 0.0000000000000000 12.0000000000000000 25
1.0589744936358887  -1.1041099785726836 2.0299053821591921 0.0000000000000000 12.0000000000000000 26
1.0989695405309350  -1.1369396588657830 2.0847681783878773 0.0000000000000000 12.0000000000000000 27
1.1389293260836664  -1.1689859216832703 2.1399460577791856 0.0000000000000000 12.0000000000000000 28
1.1788557892359819  -1.2002503865123932 2.1953327496365853 0.0000000000000000 12.0000000000000000 29
1.2187508164940297  -1.2307362489417586 2.2508272508947043 0.0000000000000000 12.0000000000000000 30
1.2586162389384001  -1.2604481667063898 2.3063339695448177 0.0000000000000000 12.0000000000000000 31
1.2984538297831527  -1.2893921462638849 2.3617628174886613 0.0000000000000000 12.0000000000000000 32
1.3382653024498250  -1.3175754308062548 2.4170292567532110 0.0000000000000000 12.0000000000000000 33
1.3780523091207999  -1.3450063904933629 2.4720543031563142 0.0000000000000000 12.0000000000000000 34
1.4178164397354009  -1.3716944155787139 2.5267644915857108 0.0000000000000000 12.0000000000000000 35
1.4575592213917106  -1.3976498129885715 2.5810918070523372 0.0000000000000000 12.0000000000000000 36
1.4972821181172846  -1.4228837068122007 2.6349735856135168 0.0000000000000000 12.0000000000000000 37
1.5369865309726247  -1.4474079430652034 2.6883523891428647 0.0000000000000000 12.0000000000000000 38
1.5766737984522983  -1.4712349990002502 2.7411758577615402 0.0000000000000000 12.0000000000000000 39
1.6163451971499618  -1.4943778971601303 2.7933965435490946 0.0000000000000000 12.0000000000000000 40
1.6560019426551533  -1.5168501242970533 2.8449717289301804 0.0000000000000000 12.0000000000000000 41
1.6956451906514776  -1.5386655552195239 2.8958632328933551 0.0000000000000000 12.0000000000000000 42
1.7352760381877110  -1.5598383815734367 2.9460372079473034 0.0000000000000000 12.0000000000000000 43
1.7748955250953171  -1.5803830455170742 2.9954639304633712 0.0000000000000000 12.0000000000000000 44
1.8145046355278611  -1.6003141782098147 3.0441175867971824 0.0000000000000000 12.0000000000000000 45
1.8541042995997832  -1.6196465430011759 3.0919760573294743 0.0000000000000000 12.0000000000000000 46
1.8936953951039832  -1.6383949831796611 3.1390207003216819 0.0000000000000000 12.0000000000000000 47
1.9332787492895354  -1.6565743741192183 3.1852361372468838 0.0000000000000000 12.0000000000000000 48
1.9728551406827015  -1.6741995796444253 3.2306100410344292 0.0000000000000000 12.0000000000000000 49
2.0124253009361586  -1.6912854124230450 3.2751329284575301 0.0000000000000000 12.0000000000000000 50
2.0519899166929902  -1.7078465981861755 3.3187979576991484 0.0000000000000000 12.0000000000000000 51
2.0915496314535584  -1.7238977435708323 3.3616007319524317 0.0000000000000000 12.0000000000000000 52
2.1311050474348061  -1.7394533073774880 3.4035391097483729 0.0000000000000000 12.0000000000000000 53
2.1706567274128852  -1.7545275750351674 3.4446130225553007 0.0000000000000000 12.0000000000000000 54
2.2102051965412510  -1.7691346360686064 3.4848243000611761 0.0000000000000000 12.0000000000000000 55
2.2497509441374697  -1.7832883643658617 3.5241765034310122 0.0000000000000000 12.0000000000000000 56
2.2892944254330621  -1.7970024010497530 3.5626747667264422 0.0000000000000000 12.0000000000000000 57
2.3288360632816127  -1.8102901397627418 3.6003256465822702 0.0000000000000000 12.0000000000000000 58
2.3683762498212455  -1.8231647141817657 3.6371369801546702 0.0000000000000000 12.0000000000000000 59
2.4079153480883173  -1.8356389875873036 3.6731177512869557 0.0000000000000000 12.0000000000000000 60
2.4474536935798907  -1.8477255443189207 3.7082779647801418 0.0000000000000000 12.0000000000000000 61
2.4869915957631257  -1.8594366829579057 3.7426285286065362 0.0000000000000000 12.0000000000000000 62
2.5265293395303106  -1.8707844110861516 3.7761811438638713 0.0000000000000000 12.0000000000000000 63
2.5660671865986999  -1.8817804414789649 3.8089482022347130 0.0000000000000000 12.0000000000000000 64
2.6056053768547720  -1.8924361895979405 3.8409426906897863 0.0000000000000000 12.0000000000000000 65
2.6451441296428655  -1.9027627722584692 3.8721781031539027 0.0000000000000000 12.0000000000000000 66
2.6846836449984974  -1.9127710073545687 3.9026683588387434 0.0000000000000000 12.0000000000000000 67
2.7242241048269182  -1.9224714145316932 3.9324277269366705 0.0000000000000000 12.0000000000000000 68
2.7637656740276939  -1.9318742167058265 3.9614707573641867 0.0000000000000000 12.0000000000000000 69
2.8033085015663315  -1.9409893423345461 3.9898122172412918 0.0000000000000000 12.0000000000000000 70
2.8428527214940886  -1.9498264283527673 4.0174670327936406 0.0000000000000000 12.0000000000000000 71
2.8823984539172671  -1.9583948236926150 4.0444502363678527 0.0000000000000000 12.0000000000000000 72
2.9219458059174137  -1.9667035933131722 4.0707769182554525 0.0000000000000000 12.0000000000000000 73
2.9614948724238959  -1.9747615226719570 4.0964621830282102 0.0000000000000000 12.0000000000000000 74
3.0010457370404295  -1.9825771225755935 4.1215211100960101 0.0000000000000000 12.0000000000000000 75
3.0405984728271656  -1.9901586343525184 4.1459687182080280 0.0000000000000000 12.0000000000000000 76
3.0801531430399578  -1.9975140352955545 4.1698199336284114 0.0000000000000000 12.0000000000000000 77
3.1197098018284950  -2.0046510443268590 4.1930895617286943 0.0000000000000000 12.0000000000000000 78
3.1592684948949383  -2.0115771278421541 4.2157922617506660 0.0000000000000000 12.0000000000000000 79
3.1988292601147310  -2.0182995056952042 4.2379425245051854 0.0000000000000000 12.0000000000000000 80
3.2383921281212293  -2.0248251572872911 4.2595546527841677 0.0000000000000000 12.0000000000000000 81
3.2779571228557711  -2.0311608277299400 4.2806427442749149 0.0000000000000000 12.0000000000000000 82
3.3175242620847825  -2.0373130340524126 4.3012206767776018 0.0000000000000000 12.0000000000000000 83
3.3570935578854821  -2.0432880714284929 4.3213020955383188 0.0000000000000000 12.0000000000000000 84
3.3966650171017134  -2.0490920193998479 4.3409004025212479 0.0000000000000000 12.0000000000000000 85
3.4362386417713791  -2.0547307480757806 4.3600287474546064 0.0000000000000000 12.0000000000000000 86
3.4758144295269324  -2.0602099242915717 4.3787000204954598 0.0000000000000000 12.0000000000000000 87
3.5153923739703044  -2.0655350177097302 4.3969268463687943 0.0000000000000000 12.0000000000000000 88
3.5549724650236167  -2.0707113068504479 4.4147215798459154 0.0000000000000000 12.0000000000000000 89
3.5945546892569871  -2.0757438850393259 4.4320963024366735 0.0000000000000000 12.0000000000000000 90
3.6341390301946590  -2.0806376662621333 4.4490628201788622 0.0000000000000000 12.0000000000000000 91
3.6737254686006651  -2.0853973909177985 4.4656326624165370 0.0000000000000000 12.0000000000000000 92
3.7133139827451589  -2.0900276314622084 4.4818170814671392 0.0000000000000000 12.0000000000000000 93
3.7529045486525359  -2.0945327979366231 4.4976270530847318 0.0000000000000000 12.0000000000000000 94
3.7924971403323626  -2.0989171433756155 4.5130732776338318 0.0000000000000000 12.0000000000000000 95
3.8320917299941408  -2.1031847690904737 4.5281661818951404 0.0000000000000000 12.0000000000000000 96
3.8716882882468480  -2.1073396298248426 4.5429159214305379 0.0000000000000000 12.0000000000000000 97
3.9112867842841665  -2.1113855387802771 4.5573323834407944 0.0000000000000000 12.0000000000000000 98
3.9508871860562622  -2.1153261725100552 4.5714251900549581 0.0000000000000000 12.0000000000000000 99
3.9904894604289369  -2.1191650756802245 4.5852037019953809 0.0000000000000000 12.0000000000000000 100
4.0300935733309302  -2.1229056656974974 4.5986770225673519 0.0000000000000000 12.0000000000000000 101
4.0696994898901115  -2.1265512372040782 4.6118540019265604 0.0000000000000000 12.0000000000000000 102
4.1093071745592509  -2.1301049664399514 4.6247432415819807 0.0000000000000000 12.0000000000000000 103
4.1489165912320445  -2.1335699154735699 4.6373530990954333 0.0000000000000000 12.0000000000000000 104
4.1885277033500179  -2.1369490363022607 4.6496916929427998 0.0000000000000000 12.0000000000000000 105
4.2281404740008757  -2.1402451748238946 4.6617669075050463 0.0000000000000000 12.0000000000000000 106
4.2677548660088878  -2.1434610746816793 4.6735863981603467 0.0000000000000000 12.0000000000000000 107
4.3073708420178178  -2.1465993809841759 4.6851575964514476 0.0000000000000000 12.0000000000000000 108
4.3469883645668874  -2.1496626439027606 4.6964877153048681 0.0000000000000000 12.0000000000000000 109
4.3866073961602590  -2.1526533221489506 4.7075837542810621 0.0000000000000000 12.0000000000000000 110
4.4262278993304616  -2.1555737863342022 4.7184525048368808 0.0000000000000000 12.0000000000000000 111
4.4658498366961776  -2.1584263222147486 4.7291005555835106 0.0000000000000000 12.0000000000000000 112
4.5054731710147884  -2.1612131338242961 4.7395342975251715 0.0000000000000000 12.0000000000000000 113
4.5450978652300256  -2.1639363464973473 4.7497599292653492 0.0000000000000000 12.0000000000000000 114
4.5847238825150942  -2.1665980097859974 4.7597834621689668 0.0000000000000000 12.0000000000000000 115
4.6243511863115589  -2.1692001002731152 4.7696107254703692 0.0000000000000000 12.0000000000000000 116
4.6639797403643453  -2.1717445242847866 4.7792473713182355 0.0000000000000000 12.0000000000000000 117
4.7036095087530665  -2.1742331205049261 4.7886988797496199 0.0000000000000000 12.0000000000000000 118
4.7432404559200201  -2.1766676624949688 4.7979705635866736 0.0000000000000000 12.0000000000000000 119
4.7828725466950477  -2.1790498611215021 4.8070675732501966 0.0000000000000000 12.0000000000000000 120
4.8225057463175078  -2.1813813668947049 4.8159949014854062 0.0000000000000000 12.0000000000000000 121
4.8621400204555831  -2.1836637722204371 4.8247573879958656 0.0000000000000000 12.0000000000000000 122
4.9017753352231344  -2.1858986135687162 4.8333597239823689 0.0000000000000000 12.0000000000000000 123
4.9414116571942559  -2.1880873735613720 4.8418064565841759 0.0000000000000000 12.0000000000000000 124
4.9810489534157592  -2.1902314829815617 4.8501019932205907 0.0000000000000000 12.0000000000000000 125
5.0206871914177125  -2.1923323227077485 4.8582506058313921 0.0000000000000000 12.0000000000000000 126
5.0603263392222022  -2.1943912255748064 4.8662564350152060 0.0000000000000000 12.0000000000000000 127
5.0999663653504808  -2.1964094781646835 4.8741234940650600 0.0000000000000000 12.0000000000000000 128
5.1396072388285985  -2.1983883225291834 4.8818556729011338 0.0000000000000000 12.0000000000000000 129
5.1792489291916759  -2.2003289578472045 4.8894567419006485 0.0000000000000000 12.0000000000000000 130
5.2188914064869190  -2.2022325420188142 4.8969303556254680 0.0000000000000000 12.0000000000000000 131
5.2585346412754994  -2.2041001931984399 4.9042800564480125 0.0000000000000000 12.0000000000000000 132
5.2981786046333719  -2.2059329912693495 4.9115092780764096 0.0000000000000000 12.0000000000000000 133
5.3378232681511610  -2.2077319792616481 4.9186213489801203 0.0000000000000000 12.0000000000000000 134
5.3774686039331812  -2.2094981647158152 4.9256194957171902 0.0000000000000000 12.0000000000000000 135
5.4171145845956712  -2.2112325209938053 4.9325068461646255 0.0000000000000000 12.0000000000000000 136
5.4567611832643266  -2.2129359885397335 4.9392864326535326 0.0000000000000000 12.0000000000000000 137
5.4964083735712057  -2.2146094760919848 4.9459611950106446 0.0000000000000000 12.0000000000000000 138
5.5360561296510493  -2.2162538618485823 4.9525339835080011 0.0000000000000000 12.0000000000000000 139
5.5757044261371043  -2.2178699945876379 4.9590075617226717 0.0000000000000000 12.0000000000000000 140
5.6153532381564908  -2.2194586947445645 4.9653846093085283 0.0000000000000000 12.0000000000000000 141
5.6550025413251541  -2.2210207554476904 4.9716677246817689 0.0000000000000000 12.0000000000000000 142
5.6946523117424821  -2.2225569435139199 4.9778594276224899 0.0000000000000000 12.0000000000000000 143
5.7343025259855924  -2.2240680004059508 4.9839621617941665 0.0000000000000000 12.0000000000000000 144
5.7739531611033561  -2.2255546431525524 4.9899782971831339 0.0000000000000000 12.0000000000000000 145
5.8136041946101882  -2.2270175652333117 4.9959101324600610 0.0000000000000000 12.0000000000000000 146
5.8532556044796396  -2.2284574374292814 5.0017598972656421 0.0000000000000000 12.0000000000000000 147
5.8929073691378129  -2.2298749086408116 5.0075297544222916 0.0000000000000000 12.0000000000000000 148
5.9325594674566515  -2.2312706066738568 5.0132218020741446 0.0000000000000000 12.0000000000000000 149
5.9722118787471006  -2.2326451389960478 5.0188380757572055 0.0000000000000000 12.0000000000000000 150
6.0118645827521977  -2.2339990934636282 5.0243805504017169 0.0000000000000000 12.0000000000000000 151
6.0515175596400841  -2.2353330390204649 5.0298511422687202 0.0000000000000000 12.0000000000000000 152
6.0911707899969727  -2.2366475263702270 5.0352517108227488 0.0000000000000000 12.0000000000000000 153
6.1308242548200944  -2.2379430886227696 5.0405840605425958 0.0000000000000000 12.0000000000000000 154
6.1704779355106290  -2.2392202419157350 5.0458499426719596 0.0000000000000000 12.0000000000000000 155
6.2101318138666421  -2.2404794860123958 5.0510510569119473 0.0000000000000000 12.0000000000000000 156
6.2497858720760444  -2.2417213048766405 5.0561890530571540 0.0000000000000000 12.0000000000000000 157
6.2894400927095724  -2.2429461672260071 5.0612655325770985 0.0000000000000000 12.0000000000000000 158
6.3290944587138283  -2.2441545270636656 5.0662820501447996 0.0000000000000000 12.0000000000000000 159
6.3687489534043600  -2.2453468241901353 5.0712401151141533 0.0000000000000000 12.0000000000000000 160
6.4084035604587992  -2.2465234846956110 5.0761411929477518 0.0000000000000000 12.0000000000000000 161
6.4480582639100881  -2.2476849214335628 5.0809867065968062 0.0000000000000000 12.0000000000000000 162
6.4877130481397662  -2.2488315344764875 5.0857780378347162 0.0000000000000000 12.0000000000000000 163
6.5273678978713434  -2.2499637115543800 5.0905165285457823 0.0000000000000000 12.0000000000000000 164
6.5670227981637748  -2.2510818284767158 5.0952034819706089 0.0000000000000000 12.0000000000000000 165
6.6066777344050118  -2.2521862495385454 5.0998401639096622 0.0000000000000000 12.0000000000000000 166
6.6463326923056609  -2.2532773279113418 5.1044278038862423 0.0000000000000000 12.0000000000000000 167
6.6859876578927455  -2.2543554060192164 5.1089675962704595 0.0000000000000000 12.0000000000000000 168
6.7256426175035671  -2.2554208159010551 5.1134607013653497 0.0000000000000000 12.0000000000000000 169
6.7652975577796806  -2.2564738795591759 5.1179082464564960 0.0000000000000000 12.0000000000000000 170
6.8049524656609712  -2.2575149092949944 5.1223113268264235 0.0000000000000000 12.0000000000000000 171
6.8446073283798476  -2.2585442080322338 5.1266710067349113 0.0000000000000000 12.0000000000000000 172
6.8842621334555467  -2.2595620696281848 5.1309883203664715 0.0000000000000000 12.0000000000000000 173
6.9239168686885462  -2.2605687791734597 5.1352642727460349 0.0000000000000000 12.0000000000000000 174
6.9635715221551004  -2.2615646132807004 5.1394998406240280 0.0000000000000000 12.0000000000000000 175
7.0032260822018788  -2.2625498403627060 5.1436959733318721 0.0000000000000000 12.0000000000000000 176
7.0428805374407304  -2.2635247209003317 5.1478535936088861 0.0000000000000000 12.0000000000000000 177
7.0825348767435479  -2.2644895077006555 5.1519735984016943 0.0000000000000000 12.0000000000000000 178
7.1221890892372528  -2.2654444461456769 5.1560568596369594 0.0000000000000000 12.0000000000000000 179
7.1618431642988947  -2.2663897744320463 5.1601042249685216 0.0000000000000000 12.0000000000000000 180
7.2014970915508547  -2.2673257238020668 5.1641165184997089 0.0000000000000000 12.0000000000000000 181
7.2411508608561617  -2.2682525187663680 5.1680945414818051 0.0000000000000000 12.0000000000000000 182
7.2808044623139230  -2.2691703773185790 5.1720390729893442 0.0000000000000000 12.0000000000000000 183
7.3204578862548528  -2.2700795111422809 5.1759508705732848 0.0000000000000000 12.0000000000000000 184
7.3601111232369121  -2.2709801258105577 5.1798306708926196 0.0000000000000000 12.0000000000000000 185
7.3997641640410512  -2.2718724209784513 5.1836791903253001 0.0000000000000000 12.0000000000000000 186
7.4394169996670625  -2.2727565905685507 5.1874971255591547 0.0000000000000000 12.0000000000000000 187
7.4790696213295158  -2.2736328229500309 5.1912851541635279 0.0000000000000000 12.0000000000000000 188
7.5187220204538177  -2.2745013011113495 5.1950439351423228 0.0000000000000000 12.0000000000000000 189
7.5583741886723450  -2.2753622028268965 5.1987741094690660 0.0000000000000000 12.0000000000000000 190
7.5980261178206865  -2.2762157008177857 5.2024763006047072 0.0000000000000000 12.0000000000000000 191
7.6376777999339804  -2.2770619629070050 5.2061511149985673 0.0000000000000000 12.0000000000000000 192
7.6773292272433311  -2.2779011521692309 5.2097991425733712 0.0000000000000000 12.0000000000000000 193
7.7169803921723261  -2.2787334270753865 5.2134209571945389 0.0000000000000000 12.0000000000000000 194
7.7566312873336285  -2.2795589416322404 5.2170171171245601 0.0000000000000000 12.0000000000000000 195
