 # inv_tmp, energy, phys_var, phys_doublon, phys_num, step_i
0.0000000000000000  0.0033639754439179 1.1365752864514345 0.0000000000000000 12.0000000000000000 0
0.0416285123649450  -0.0439940410693044 1.1390977377415958 0.0000000000000000 12.0000000000000000 1
0.0831750978429702  -0.0913170376038254 1.1448239639895614 0.0000000000000000 12.0000000000000000 2
0.1246402257982105  -0.1385520731794429 1.1537281051769523 0.0000000000000000 12.0000000000000000 3
0.1660245444970411  -0.1856464309864529 1.1657710078280461 0.0000000000000000 12.0000000000000000 4
0.2073288772300279  -0.2325478901097096 1.1809005941288147 0.0000000000000000 12.0000000000000000 5
0.2485542171054966  -0.2792049949677838 1.1990523567085343 0.0000000000000000 12.0000000000000000 6
0.2897017205720761  -0.3255673192209459 1.2201499710191110 0.0000000000000000 12.0000000000000000 7
0.3307726997477861  -0.3715857209497214 1.2441060152171310 0.0000000000000000 12.0000000000000000 8
0.3717686136519736  -0.4172125860266138 1.2708227856801588 0.0000000000000000 12.0000000000000000 9
0.4126910584531351  -0.4624020567947187 1.3001931948193026 0.0000000000000000 12.0000000000000000 10
0.4535417568599204  -0.5071102434232065 1.3321017367204564 0.0000000000000000 12.0000000000000000 11
0.4943225467940230  -0.5512954156235389 1.3664255053802230 0.0000000000000000 12.0000000000000000 12
0.5350353694919452  -0.5949181727721684 1.4030352499094796 0.0000000000000000 12.0000000000000000 13
0.5756822571876228  -0.6379415908842514 1.4417964510546188 0.0000000000000000 12.0000000000000000 14
0.6162653205295517  -0.6803313453063451 1.4825704037179728 0.0000000000000000 12.0000000000000000 15
0.6567867358844571  -0.7220558084313821 1.5252152908175418 0.0000000000000000 12.0000000000000000 16
0.6972487326748439  -0.7630861221738767 1.5695872347753879 0.0000000000000000 12.0000000000000000 17
0.7376535808902626  -0.8033962453651529 1.6155413141193464 0.0000000000000000 12.0000000000000000 18
0.7780035789021377  -0.8429629766264648 1.6629325340747672 0.0000000000000000 12.0000000000000000 19
0.8183010416999705  -0.8817659536427325 1.7116167415594117 0.0000000000000000 12.0000000000000000 20
0.8585482896530809  -0.9197876300833496 1.7614514766223832 0.0000000000000000 12.0000000000000000 21
0.8987476378872633  -0.9570132316934684 1.8122967540360913 0.0000000000000000 12.0000000000000000 22
0.9389013863502655  -0.9934306933053084 1.8640157704104039 0.0000000000000000 12.0000000000000000 23
0.9790118106242967  -1.0290305786927529 1.9164755338081352 0.0000000000000000 12.0000000000000000 24
1.0190811535282609  -1.0638059853134361 1.9695474143631198 0.0000000000000000 12.0000000000000000 25
1.0591116175374258  -1.0977524360528257 2.0231076158071621 0.0000000000000000 12.0000000000000000 26
1.0991053580341321  -1.1308677601069985 2.0770375690762863 0.0000000000000000 12.0000000000000000 27
1.1390644773901193  -1.1631519651196278 2.1312242502746104 0.0000000000000000 12.0000000000000000 28
1.1789910198693432  -1.1946071026288319 2.1855604262160351 0.0000000000000000 12.0000000000000000 29
1.2188869673298552  -1.2252371287868555 2.2399448315370911 0.0000000000000000 12.0000000000000000 30
1.2587542356945216  -1.2550477621958573 2.2942822819806641 0.0000000000000000 12.0000000000000000 31
1.2985946721530850  -1.2840463405623381 2.3484837288969524 0.0000000000000000 12.0000000000000000 32
1.3384100530522842  -1.3122416777167947 2.4024662603051770 0.0000000000000000 12.0000000000000000 33
1.3782020824263927  -1.3396439223794019 2.4561530540207563 0.0000000000000000 12.0000000000000000 34
1.4179723911175266  -1.3662644198818890 2.5094732883924173 0.0000000000000000 12.0000000000000000 35
1.4577225364332842  -1.3921155778846859 2.5623620161287626 0.0000000000000000 12.0000000000000000 36
1.4974540022885823  -1.4172107369606333 2.6147600065401089 0.0000000000000000 12.0000000000000000 37
1.5371681997788231  -1.4415640467551556 2.6666135612955584 0.0000000000000000 12.0000000000000000 38
1.5768664681326057  -1.4651903482804207 2.7178743085126396 0.0000000000000000 12.0000000000000000 39
1.6165500759939488  -1.4881050627592587 2.7684989796721822 0.0000000000000000 12.0000000000000000 40
1.6562202229862895  -1.5103240873051493 2.8184491734972608 0.0000000000000000 12.0000000000000000 41
1.6958780415132411  -1.5318636976078526 2.8676911105640603 0.0000000000000000 12.0000000000000000 42
1.7355245987540977  -1.5527404576909423 2.9161953820345397 0.0000000000000000 12.0000000000000000 43
1.7751608988152985  -1.5729711367173360 2.9639366955240427 0.0000000000000000 12.0000000000000000 44
1.8147878850023715  -1.5925726327418008 3.0108936207492674 0.0000000000000000 12.0000000000000000 45
1.8544064421802329  -1.6115619032444952 3.0570483372480046 0.0000000000000000 12.0000000000000000 46
1.8940173991930318  -1.6299559022265582 3.1023863861271694 0.0000000000000000 12.0000000000000000 47
1.9336215313179643  -1.6477715236062753 3.1468964274820386 0.0000000000000000 12.0000000000000000 48
1.9732195627305624  -1.6650255506217084 3.1905700048399188 0.0000000000000000 12.0000000000000000 49
2.0128121689619172  -1.6817346109218692 3.2334013177168668 0.0000000000000000 12.0000000000000000 50
2.0523999793310370  -1.6979151370124592 3.2753870031367391 0.0000000000000000 12.0000000000000000 51
2.0919835793381072  -1.7135833317128946 3.3165259267479370 0.0000000000000000 12.0000000000000000 52
2.1315635130067458  -1.7287551382779460 3.3568189839836773 0.0000000000000000 12.0000000000000000 53
2.1711402851655075  -1.7434462148387142 3.3962689115458486 0.0000000000000000 12.0000000000000000 54
2.2107143636607969  -1.7576719128233635 3.4348801093489123 0.0000000000000000 12.0000000000000000 55
2.2502861814950950  -1.7714472590268375 3.4726584729373049 0.0000000000000000 12.0000000000000000 56
2.2898561388859155  -1.7847869410103843 3.5096112362861098 0.0000000000000000 12.0000000000000000 57
2.3294246052422736  -1.7977052955252628 3.5457468248083290 0.0000000000000000 12.0000000000000000 58
2.3689919210565966  -1.8102162996700764 3.5810747183214207 0.0000000000000000 12.0000000000000000 59
2.4085583997110542  -1.8223335645072793 3.6156053236692425 0.0000000000000000 12.0000000000000000 60
2.4481243291981185  -1.8340703308810340 3.6493498566512677 0.0000000000000000 12.0000000000000000 61
2.4876899737559142  -1.8454394671956784 3.6823202328778826 0.0000000000000000 12.0000000000000000 62
2.5272555754195274  -1.8564534689309529 3.7145289671467818 0.0000000000000000 12.0000000000000000 63
2.5668213554899544  -1.8671244596869863 3.7459890809200176 0.0000000000000000 12.0000000000000000 64
2.6063875159227421  -1.8774641935682974 3.7767140174727643 0.0000000000000000 12.0000000000000000 65
2.6459542406387531  -1.8874840587319539 3.8067175642822146 0.0000000000000000 12.0000000000000000 66
2.6855216967596700  -1.8971950819400791 3.8360137822273397 0.0000000000000000 12.0000000000000000 67
2.7250900357710934  -1.9066079339713882 3.8646169411766578 0.0000000000000000 12.0000000000000000 68
2.7646593946161628  -1.9157329357598907 3.8925414615505023 0.0000000000000000 12.0000000000000000 69
2.8042298967227608  -1.9245800651418641 3.9198018614568331 0.0000000000000000 12.0000000000000000 70
2.8438016529673451  -1.9331589641039431 3.9464127090134555 0.0000000000000000 12.0000000000000000 71
2.8833747625784945  -1.9414789464364244 3.9723885794853011 0.0000000000000000 12.0000000000000000 72
2.9229493139832234  -1.9495490057060827 3.9977440168822107 0.0000000000000000 12.0000000000000000 73
2.9625253855990588  -1.9573778234722568 4.0224934996797366 0.0000000000000000 12.0000000000000000 74
3.0021030465748115  -1.9649737776787768 4.0466514103435411 0.0000000000000000 12.0000000000000000 75
3.0416823574829106  -1.9723449511621070 4.0702320083555277 0.0000000000000000 12.0000000000000000 76
3.0812633709660542  -1.9794991402234803 4.0932494064576863 0.0000000000000000 12.0000000000000000 77
3.1208461323408287  -1.9864438632193266 4.1157175498470391 0.0000000000000000 12.0000000000000000 78
3.1604306801608786  -1.9931863691302913 4.1376501980721265 0.0000000000000000 12.0000000000000000 79
3.2000170467420364  -1.9997336460745805 4.1590609093978319 0.0000000000000000 12.0000000000000000 80
3.2396052586517752  -2.0060924297361593 4.1799630274214916 0.0000000000000000 12.0000000000000000 81
3.2791953371651812  -2.0122692116827983 4.2003696697381825 0.0000000000000000 12.0000000000000000 82
3.3187872986895588  -2.0182702475527781 4.2202937184677669 0.0000000000000000 12.0000000000000000 83
3.3583811551596621  -2.0241015650926162 4.2397478124700942 0.0000000000000000 12.0000000000000000 84
3.3979769144054419  -2.0297689720312819 4.2587443410877075 0.0000000000000000 12.0000000000000000 85
3.4375745804940792  -2.0352780637790886 4.2772954392677889 0.0000000000000000 12.0000000000000000 86
3.4771741540479835  -2.0406342309419125 4.2954129839267248 0.0000000000000000 12.0000000000000000 87
3.5167756325403450  -2.0458426666435656 4.3131085914314298 0.0000000000000000 12.0000000000000000 88
3.5563790105697102  -2.0509083736509535 4.3303936160817642 0.0000000000000000 12.0000000000000000 89
3.5959842801149811  -2.0558361712984272 4.3472791494880942 0.0000000000000000 12.0000000000000000 90
3.6355914307721426  -2.0606307022090311 4.3637760207464291 0.0000000000000000 12.0000000000000000 91
3.6752004499739486  -2.0652964388117407 4.3798947973224198 0.0000000000000000 12.0000000000000000 92
3.7148113231936972  -2.0698376896547437 4.3956457865625946 0.0000000000000000 12.0000000000000000 93
3.7544240341342023  -2.0742586055158112 4.4110390377585906 0.0000000000000000 12.0000000000000000 94
3.7940385649029222  -2.0785631853116140 4.4260843446966920 0.0000000000000000 12.0000000000000000 95
3.8336548961742198  -2.0827552818083874 4.4407912486309247 0.0000000000000000 12.0000000000000000 96
3.8732730073396175  -2.0868386071371128 4.4551690416236642 0.0000000000000000 12.0000000000000000 97
3.9128928766468647  -2.0908167381166050 4.4692267702027841 0.0000000000000000 12.0000000000000000 98
3.9525144813285924  -2.0946931213885276 4.4829732392892456 0.0000000000000000 12.0000000000000000 99
3.9921377977212611  -2.0984710783684255 4.4964170163532406 0.0000000000000000 12.0000000000000000 100
4.0317628013750655  -2.1021538100173474 4.5095664357611458 0.0000000000000000 12.0000000000000000 101
4.0713894671554458  -2.1057444014385895 4.5224296032791917 0.0000000000000000 12.0000000000000000 102
4.1110177693367342  -2.1092458263044120 4.5350144007030968 0.0000000000000000 12.0000000000000000 103
4.1506476816885405  -2.1126609511175678 4.5473284905860254 0.0000000000000000 12.0000000000000000 104
4.1902791775553334  -2.1159925393125865 4.5593793210401010 0.0000000000000000 12.0000000000000000 105
4.2299122299297096  -2.1192432552017526 4.5711741305892897 0.0000000000000000 12.0000000000000000 106
4.2695468115197857  -2.1224156677707557 4.5827199530537008 0.0000000000000000 12.0000000000000000 107
4.3091828948111335  -2.1255122543289127 4.5940236224477839 0.0000000000000000 12.0000000000000000 108
4.3488204521236158  -2.1285354040188738 4.6050917778765514 0.0000000000000000 12.0000000000000000 109
4.3884594556635053  -2.1314874211906005 4.6159308684160001 0.0000000000000000 12.0000000000000000 110
4.4280998775712117  -2.1343705286443955 4.6265471579654580 0.0000000000000000 12.0000000000000000 111
4.4677416899649032  -2.1371868707475907 4.6369467300608918 0.0000000000000000 12.0000000000000000 112
4.5073848649803558  -2.1399385164295111 4.6471354926399648 0.0000000000000000 12.0000000000000000 113
4.5470293748072610  -2.1426274620591057 4.6571191827503737 0.0000000000000000 12.0000000000000000 114
4.5866751917222555  -2.1452556342096392 4.6669033711944676 0.0000000000000000 12.0000000000000000 115
4.6263222881189208  -2.1478248923146324 4.6764934671039828 0.0000000000000000 12.0000000000000000 116
4.6659706365349489  -2.1503370312191876 4.6858947224396683 0.0000000000000000 12.0000000000000000 117
4.7056202096766917  -2.1527937836306683 4.6951122364114104 0.0000000000000000 12.0000000000000000 118
4.7452709804412816  -2.1551968224725964 4.7041509598151805 0.0000000000000000 12.0000000000000000 119
4.7849229219365013  -2.1575477631455398 4.7130156992838543 0.0000000000000000 12.0000000000000000 120
4.8245760074985622  -2.1598481656985560 4.7217111214493750 0.0000000000000000 12.0000000000000000 121
4.8642302107079498  -2.1620995369147558 4.7302417570145687 0.0000000000000000 12.0000000000000000 122
4.9038855054034878  -2.1643033323143062 4.7386120047330849 0.0000000000000000 12.0000000000000000 123
4.9435418656947379  -2.1664609580781757 4.7468261352965886 0.0000000000000000 12.0000000000000000 124
4.9831992659728721  -2.1685737728957499 4.7548882951285742 0.0000000000000000 12.0000000000000000 125
5.0228576809201355  -2.1706430897393463 4.7628025100846436 0.0000000000000000 12.0000000000000000 126
5.0625170855179968  -2.1726701775685435 4.7705726890592253 0.0000000000000000 12.0000000000000000 127
5.1021774550540995  -2.1746562629671495 4.7782026274991463 0.0000000000000000 12.0000000000000000 128
5.1418387651281092  -2.1766025317155044 4.7856960108246085 0.0000000000000000 12.0000000000000000 129
5.1815009916565247  -2.1785101303006993 4.7930564177583470 0.0000000000000000 12.0000000000000000 130
5.2211641108765630  -2.1803801673672609 4.8002873235639267 0.0000000000000000 12.0000000000000000 131
5.2608280993491823  -2.1822137151106435 4.8073921031943110 0.0000000000000000 12.0000000000000000 132
5.3004929339613023  -2.1840118106158868 4.8143740343519568 0.0000000000000000 12.0000000000000000 133
5.3401585919273034  -2.1857754571436390 4.8212363004618011 0.0000000000000000 12.0000000000000000 134
5.3798250507898757  -2.1875056253656617 4.8279819935585859 0.0000000000000000 12.0000000000000000 135
5.4194922884202397  -2.1892032545518960 4.8346141170901404 0.0000000000000000 12.0000000000000000 136
5.4591602830178294  -2.1908692537110239 4.8411355886381990 0.0000000000000000 12.0000000000000000 137
5.4988290131094733  -2.1925045026864214 4.8475492425584026 0.0000000000000000 12.0000000000000000 138
5.5384984575481075  -2.1941098532093060 4.8538578325412978 0.0000000000000000 12.0000000000000000 139
5.5781685955110856  -2.1956861299108348 4.8600640340959984 0.0000000000000000 12.0000000000000000 140
5.6178394064981143  -2.1972341312947861 4.8661704469583826 0.0000000000000000 12.0000000000000000 141
5.6575108703288493  -2.1987546306724415 4.8721795974255286 0.0000000000000000 12.0000000000000000 142
5.6971829671401890  -2.2002483770611998 4.8780939406183075 0.0000000000000000 12.0000000000000000 143
5.7368556773833035  -2.2017160960483904 4.8839158626738559 0.0000000000000000 12.0000000000000000 144
5.7765289818204186  -2.2031584906216870 4.8896476828697990 0.0000000000000000 12.0000000000000000 145
5.8162028615213899  -2.2045762419674753 4.8952916556819925 0.0000000000000000 12.0000000000000000 146
5.8558772978600873  -2.2059700102384983 4.9008499727776558 0.0000000000000000 12.0000000000000000 147
5.8955522725106251  -2.2073404352919521 4.9063247649454862 0.0000000000000000 12.0000000000000000 148
5.9352277674434299  -2.2086881373993186 4.9117181039647653 0.0000000000000000 12.0000000000000000 149
5.9749037649212191  -2.2100137179289931 4.9170320044150095 0.0000000000000000 12.0000000000000000 150
6.0145802474948429  -2.2113177600028289 4.9222684254278759 0.0000000000000000 12.0000000000000000 151
6.0542571979990605  -2.2126008291277039 4.9274292723832076 0.0000000000000000 12.0000000000000000 152
6.0939345995482457  -2.2138634738030016 4.9325163985505283 0.0000000000000000 12.0000000000000000 153
6.1336124355320329  -2.2151062261050676 4.9375316066779487 0.0000000000000000 12.0000000000000000 154
6.1732906896109121  -2.2163296022495520 4.9424766505298798 0.0000000000000000 12.0000000000000000 155
6.2129693457118220  -2.2175341031324654 4.9473532363751600 0.0000000000000000 12.0000000000000000 156
6.2526483880236894  -2.2187202148508720 4.9521630244271124 0.0000000000000000 12.0000000000000000 157
6.2923278009929922  -2.2198884092039899 4.9569076302370538 0.0000000000000000 12.0000000000000000 158
6.3320075693192983  -2.2210391441754944 4.9615886260426576 0.0000000000000000 12.0000000000000000 159
6.3716876779508338  -2.2221728643977716 4.9662075420726417 0.0000000000000000 12.0000000000000000 160
6.4113681120800576  -2.2232900015988424 4.9707658678091189 0.0000000000000000 12.0000000000000000 161
6.4510488571392663  -2.2243909750326423 4.9752650532089806 0.0000000000000000 12.0000000000000000 162
6.4907298987962267  -2.2254761918933168 4.9797065098856503 0.0000000000000000 12.0000000000000000 163
6.5304112229498488  -2.2265460477141712 4.9840916122524055 0.0000000000000000 12.0000000000000000 164
6.5700928157258982  -2.2276009267518795 4.9884216986286214 0.0000000000000000 12.0000000000000000 165
6.6097746634727592  -2.2286412023565214 4.9926980723100352 0.0000000000000000 12.0000000000000000 166
6.6494567527572386  -2.2296672373280382 4.9969220026042764 0.0000000000000000 12.0000000000000000 167
6.6891390703604490  -2.2306793842596004 5.0010947258327754 0.0000000000000000 12.0000000000000000 168
6.7288216032737109  -2.2316779858684330 5.0052174463001595 0.0000000000000000 12.0000000000000000 169
6.7685043386945578  -2.2326633753145839 5.0092913372322023 0.0000000000000000 12.0000000000000000 170
6.8081872640227754  -2.2336358765080955 5.0133175416833788 0.0000000000000000 12.0000000000000000 171
6.8478703668565162  -2.2345958044050449 5.0172971734150345 0.0000000000000000 12.0000000000000000 172
6.8875536349884845  -2.2355434652928730 5.0212313177451229 0.0000000000000000 12.0000000000000000 173
6.9272370564021886  -2.2364791570654483 5.0251210323705102 0.0000000000000000 12.0000000000000000 174
6.9669206192682562  -2.2374031694882346 5.0289673481627100 0.0000000000000000 12.0000000000000000 175
7.0066043119408272  -2.2383157844539516 5.0327712699379541 0.0000000000000000 12.0000000000000000 176
7.0462881229540280  -2.2392172762291165 5.0365337772025072 0.0000000000000000 12.0000000000000000 177
7.0859720410184925  -2.2401079116917888 5.0402558248739613 0.0000000000000000 12.0000000000000000 178
7.1256560550179868  -2.2409879505608954 5.0439383439794234 0.0000000000000000 12.0000000000000000 179
7.1653401540060848  -2.2418576456174093 5.0475822423313046 0.0000000000000000 12.0000000000000000 180
7.2050243272029197  -2.2427172429177524 5.0511884051814731 0.0000000000000000 12.0000000000000000 181
7.2447085639920230  -2.2435669819996864 5.0547576958545521 0.0000000000000000 12.0000000000000000 182
7.2843928539172262  -2.2444070960809483 5.0582909563609855 0.0000000000000000 12.0000000000000000 183
7.3240771866796228  -2.2452378122510179 5.0617890079906580 0.0000000000000000 12.0000000000000000 184
7.3637615521346280  -2.2460593516561320 5.0652526518876044 0.0000000000000000 12.0000000000000000 185
7.4034459402890942  -2.2468719296779187 5.0686826696065665 0.0000000000000000 12.0000000000000000 186
7.4431303412984935  -2.2476757561058318 5.0720798236519293 0.0000000000000000 12.0000000000000000 187
7.4828147454641805  -2.2484710353036506 5.0754448579996705 0.0000000000000000 12.0000000000000000 188
7.5224991432307275  -2.2492579663702497 5.0787784986028921 0.0000000000000000 12.0000000000000000 189
7.5621835251833014  -2.2500367432948654 5.0820814538814796 0.0000000000000000 12.0000000000000000 190
7.6018678820451484  -2.2508075551070572 5.0853544151964485 0.0000000000000000 12.0000000000000000 191
7.6415522046751079  -2.2515705860215798 5.0885980573094418 0.0000000000000000 12.0000000000000000 192
7.6812364840652156  -2.2523260155783400 5.0918130388280005 0.0000000000000000 12.0000000000000000 193
7.7209207113383655  -2.2530740187776201 5.0950000026369011 0.0000000000000000 12.0000000000000000 194
7.7606048777460162  -2.2538147662107630 5.0981595763162080 0.0000000000000000 12.0000000000000000 195
