 # inv_tmp, energy, phys_var, phys_doublon, phys_num, step_i
0.0000000000000000  -0.0011982649601204 1.1370840923299603 0.0000000000000000 12.0000000000000000 0
0.0416245569332529  -0.0485594887437298 1.1387052827293214 0.0000000000000000 12.0000000000000000 1
0.0831672928311255  -0.0958302697451150 1.1435292866600553 0.0000000000000000 12.0000000000000000 2
0.1246288181310377  -0.1429583460501066 1.1515258768797543 0.0000000000000000 12.0000000000000000 3
0.1660099170610903  -0.1898921559973138 1.1626518017276430 0.0000000000000000 12.0000000000000000 4
0.2073115418488057  -0.2365810934593287 1.1768512403798770 0.0000000000000000 12.0000000000000000 5
0.2485348057518401  -0.2829757534318807 1.1940563754911226 0.0000000000000000 12.0000000000000000 6
0.2896809750056768  -0.3290281652968345 1.2141880731506722 0.0000000000000000 12.0000000000000000 7
0.3307514597974037  -0.3746920113384648 1.2371566584129730 0.0000000000000000 12.0000000000000000 8
0.3717478043864383  -0.4199228283502772 1.2628627733033990 0.0000000000000000 12.0000000000000000 9
0.4126716765022252  -0.4646781904649511 1.2911983031784482 0.0000000000000000 12.0000000000000000 10
0.4535248561553815  -0.5089178716648122 1.3220473566501272 0.0000000000000000 12.0000000000000000 11
0.4943092240024192  -0.5526039867759763 1.3552872839706143 0.0000000000000000 12.0000000000000000 12
0.5350267494050518  -0.5957011101069674 1.3907897188061382 0.0000000000000000 12.0000000000000000 13
0.5756794783233080  -0.6381763712530454 1.4284216286890292 0.0000000000000000 12.0000000000000000 14
0.6162695211773820  -0.6799995279420028 1.4680463600947669 0.0000000000000000 12.0000000000000000 15
0.6567990408065940  -0.7211430161375008 1.5095246650099152 0.0000000000000000 12.0000000000000000 16
0.6972702406452976  -0.7615819779348003 1.5527156969945426 0.0000000000000000 12.0000000000000000 17
0.7376853532253722  -0.8012942680746777 1.5974779660529843 0.0000000000000000 12.0000000000000000 18
0.7780466291034391  -0.8402604401593092 1.6436702430618568 0.0000000000000000 12.0000000000000000 19
0.8183563262984709  -0.8784637138751744 1.6911524060166605 0.0000000000000000 12.0000000000000000 20
0.8586167003124177  -0.9158899247100704 1.7397862219027236 0.0000000000000000 12.0000000000000000 21
0.8988299947931565  -0.9525274577930728 1.7894360595307366 0.0000000000000000 12.0000000000000000 22
0.9389984328858197  -0.9883671675877080 1.8399695301644499 0.0000000000000000 12.0000000000000000 23
0.9791242093056578  -1.0234022852310134 1.8912580541763155 0.0000000000000000 12.0000000000000000 24
1.0192094831532821  -1.0576283153365709 1.9431773532700527 0.0000000000000000 12.0000000000000000 25
1.0592563714816186  -1.0910429240711561 1.9956078689875620 0.0000000000000000 12.0000000000000000 26
1.0992669436133684  -1.1236458202756254 2.0484351092571584 0.0000000000000000 12.0000000000000000 27
1.1392432161982877  -1.1554386313353089 2.1015499256329617 0.0000000000000000 12.0000000000000000 28
1.1791871489913086  -1.1864247754174779 2.1548487246182217 0.0000000000000000 12.0000000000000000 29
1.2191006413253909  -1.2166093315878752 2.2082336170600465 0.0000000000000000 12.0000000000000000 30
1.2589855292471015  -1.2459989091989372 2.2616125100549231 0.0000000000000000 12.0000000000000000 31
1.2988435832781562  -1.2746015178133689 2.3148991461221073 0.0000000000000000 12.0000000000000000 32
1.3386765067625626  -1.3024264387917872 2.3680130945962157 0.0000000000000000 12.0000000000000000 33
1.3784859347564087  -1.3294840995358019 2.4208797002739559 0.0000000000000000 12.0000000000000000 34
1.4182734334157607  -1.3557859512410433 2.4734299943362688 0.0000000000000000 12.0000000000000000 35
1.4580404998373768  -1.3813443508808920 2.5256005724702844 0.0000000000000000 12.0000000000000000 36
1.4977885623069709  -1.4061724480132287 2.5773334449494869 0.0000000000000000 12.0000000000000000 37
1.5375189809104475  -1.4302840768810059 2.6285758632085070 0.0000000000000000 12.0000000000000000 38
1.5772330484647636  -1.4536936541642351 2.6792801271841173 0.0000000000000000 12.0000000000000000 39
1.6169319917267568  -1.4764160826370114 2.7294033773976474 0.0000000000000000 12.0000000000000000 40
1.6566169728403342  -1.4984666608889126 2.7789073754367490 0.0000000000000000 12.0000000000000000 41
1.6962890909847406  -1.5198609991860388 2.8277582761658069 0.0000000000000000 12.0000000000000000 42
1.7359493841891200  -1.5406149414727894 2.8759263946616764 0.0000000000000000 12.0000000000000000 43
1.7755988312812323  -1.5607444934513519 2.9233859705423249 0.0000000000000000 12.0000000000000000 44
1.8152383539408736  -1.5802657566211298 2.9701149320351039 0.0000000000000000 12.0000000000000000 45
1.8548688188312314  -1.5991948681146997 3.0160946618239048 0.0000000000000000 12.0000000000000000 46
1.8944910397840924  -1.6175479461295259 3.0613097664228044 0.0000000000000000 12.0000000000000000 47
1.9341057800173707  -1.6353410407251943 3.1057478505516385 0.0000000000000000 12.0000000000000000 48
1.9737137543659293  -1.6525900897332708 3.1493992977362719 0.0000000000000000 12.0000000000000000 49
2.0133156315090228  -1.6693108795106721 3.1922570581257039 0.0000000000000000 12.0000000000000000 50
2.0529120361798738  -1.6855190102567499 3.2343164443084809 0.0000000000000000 12.0000000000000000 51
2.0925035513450059  -1.7012298656083737 3.2755749357231130 0.0000000000000000 12.0000000000000000 52
2.1320907203428217  -1.7164585862256989 3.3160319920898012 0.0000000000000000 12.0000000000000000 53
2.1716740489726729  -1.7312200470831389 3.3556888761439012 0.0000000000000000 12.0000000000000000 54
2.2112540075272729  -1.7455288381849439 3.3945484858231332 0.0000000000000000 12.0000000000000000 55
2.2508310327627035  -1.7593992484320466 3.4326151959502074 0.0000000000000000 12.0000000000000000 56
2.2904055298015735  -1.7728452523760121 3.4698947093583268 0.0000000000000000 12.0000000000000000 57
2.3299778739660191  -1.7858804996067392 3.5063939173281033 0.0000000000000000 12.0000000000000000 58
2.3695484125382396  -1.7985183065322812 3.5421207691387750 0.0000000000000000 12.0000000000000000 59
2.4091174664471322  -1.8107716503218472 3.5770841504835853 0.0000000000000000 12.0000000000000000 60
2.4486853318803803  -1.8226531647961690 3.6112937704568426 0.0000000000000000 12.0000000000000000 61
2.4882522818219632  -1.8341751380627560 3.6447600567876766 0.0000000000000000 12.0000000000000000 62
2.5278185675156495  -1.8453495117069729 3.6774940589712894 0.0000000000000000 12.0000000000000000 63
2.5673844198554909  -1.8561878813631951 3.7095073589318850 0.0000000000000000 12.0000000000000000 64
2.6069500507047141  -1.8667014985032933 3.7408119888410489 0.0000000000000000 12.0000000000000000 65
2.6465156541447432  -1.8769012732923227 3.7714203557103421 0.0000000000000000 12.0000000000000000 66
2.6860814076563275  -1.8867977783734748 3.8013451723765015 0.0000000000000000 12.0000000000000000 67
2.7256474732349583  -1.8964012534560262 3.8305993945010663 0.0000000000000000 12.0000000000000000 68
2.7652139984428881  -1.9057216105910115 3.8591961632127725 0.0000000000000000 12.0000000000000000 69
2.8047811174002146  -1.9147684400298859 3.8871487530300657 0.0000000000000000 12.0000000000000000 70
2.8443489517175111  -1.9235510165712169 3.9144705247122578 0.0000000000000000 12.0000000000000000 71
2.8839176113725542  -1.9320783063096931 3.9411748827003947 0.0000000000000000 12.0000000000000000 72
2.9234871955337272  -1.9403589737103195 3.9672752368225850 0.0000000000000000 12.0000000000000000 73
2.9630577933326134  -1.9484013889385858 3.9927849679532925 0.0000000000000000 12.0000000000000000 74
3.0026294845883261  -1.9562136353848705 4.0177173973309284 0.0000000000000000 12.0000000000000000 75
3.0422023404860408  -1.9638035173280226 4.0420857592536494 0.0000000000000000 12.0000000000000000 76
3.0817764242121366  -1.9711785676894009 4.0659031768884040 0.0000000000000000 12.0000000000000000 77
3.1213517915483133  -1.9783460558343144 4.0891826409438341 0.0000000000000000 12.0000000000000000 78
3.1609284914269469  -1.9853129953830788 4.1119369909725156 0.0000000000000000 12.0000000000000000 79
3.2005065664498873  -1.9920861519986082 4.1341788990827144 0.0000000000000000 12.0000000000000000 80
3.2400860533727953  -1.9986720511218246 4.1559208558542302 0.0000000000000000 12.0000000000000000 81
3.2796669835570609  -2.0050769856300770 4.1771751582664338 0.0000000000000000 12.0000000000000000 82
3.3192493833912118  -2.0113070233972827 4.1979538994601047 0.0000000000000000 12.0000000000000000 83
3.3588332746836786  -2.0173680147376611 4.2182689601668502 0.0000000000000000 12.0000000000000000 84
3.3984186750286605  -2.0232655997178819 4.2381320016523505 0.0000000000000000 12.0000000000000000 85
3.4380055981467530  -2.0290052153248728 4.2575544600307200 0.0000000000000000 12.0000000000000000 86
3.4775940542019370  -2.0345921024789577 4.2765475418181111 0.0000000000000000 12.0000000000000000 87
3.5171840500964042  -2.0400313128839316 4.2951222206039210 0.0000000000000000 12.0000000000000000 88
3.5567755897446505  -2.0453277157075469 4.3132892347273692 0.0000000000000000 12.0000000000000000 89
3.5963686743281578  -2.0504860040874475 4.3310590858561202 0.0000000000000000 12.0000000000000000 90
3.6359633025319416  -2.0555107014590446 4.3484420383721556 0.0000000000000000 12.0000000000000000 91
3.6755594707641333  -2.0604061677030083 4.3654481194777066 0.0000000000000000 12.0000000000000000 92
3.7151571733597173  -2.0651766051112070 4.3820871199414828 0.0000000000000000 12.0000000000000000 93
3.7547564027694897  -2.0698260641707971 4.3983685954120322 0.0000000000000000 12.0000000000000000 94
3.7943571497351951  -2.0743584491670628 4.4143018682315613 0.0000000000000000 12.0000000000000000 95
3.8339594034517845  -2.0787775236062420 4.4298960296891954 0.0000000000000000 12.0000000000000000 96
3.8735631517176681  -2.0830869154602296 4.4451599426581208 0.0000000000000000 12.0000000000000000 97
3.9131683810737554  -2.0872901222355540 4.4601022445660456 0.0000000000000000 12.0000000000000000 98
3.9527750769320651  -2.0913905158694504 4.4747313506530562 0.0000000000000000 12.0000000000000000 99
3.9923832236946040  -2.0953913474562094 4.4890554574750947 0.0000000000000000 12.0000000000000000 100
4.0319928048631892  -2.0992957518072997 4.5030825466152944 0.0000000000000000 12.0000000000000000 101
4.0716038031408415  -2.1031067518490021 4.5168203885689815 0.0000000000000000 12.0000000000000000 102
4.1112162005253223  -2.1068272628614793 4.5302765467715167 0.0000000000000000 12.0000000000000000 103
4.1508299783953699  -2.1104600965633225 4.5434583817409848 0.0000000000000000 12.0000000000000000 104
4.1904451175901478  -2.1140079650458072 4.5563730553109050 0.0000000000000000 12.0000000000000000 105
4.2300615984823651  -2.1174734845610792 4.5690275349302567 0.0000000000000000 12.0000000000000000 106
4.2696794010455319  -2.1208591791685896 4.5814285980108815 0.0000000000000000 12.0000000000000000 107
4.3092985049157564  -2.1241674842440834 4.5935828363040354 0.0000000000000000 12.0000000000000000 108
4.3489188894484698  -2.1274007498555063 4.6054966602902363 0.0000000000000000 12.0000000000000000 109
4.3885405337704446  -2.1305612440100874 4.6171763035680211 0.0000000000000000 12.0000000000000000 110
4.4281634168274433  -2.1336511557768656 4.6286278272289696 0.0000000000000000 12.0000000000000000 111
4.4677875174278077  -2.1366725982889165 4.6398571242079321 0.0000000000000000 12.0000000000000000 112
4.5074128142822838  -2.1396276116293582 4.6508699235985329 0.0000000000000000 12.0000000000000000 113
4.5470392860403672  -2.1425181656052841 4.6616717949254181 0.0000000000000000 12.0000000000000000 114
4.5866669113233982  -2.1453461624135581 4.6722681523658114 0.0000000000000000 12.0000000000000000 115
4.6262956687546701  -2.1481134392024095 4.6826642589138032 0.0000000000000000 12.0000000000000000 116
4.6659255369867632  -2.1508217705326542 4.6928652304819432 0.0000000000000000 12.0000000000000000 117
4.7055564947262951  -2.1534728707421960 4.7028760399352949 0.0000000000000000 12.0000000000000000 118
4.7451885207563125  -2.1560683962175435 4.7127015210540737 0.0000000000000000 12.0000000000000000 119
4.7848215939564689  -2.1586099475757035 4.7223463724214874 0.0000000000000000 12.0000000000000000 120
4.8244556933211742  -2.1610990717599994 4.7318151612340582 0.0000000000000000 12.0000000000000000 121
4.8640907979758676  -2.1635372640530561 4.7411123270323943 0.0000000000000000 12.0000000000000000 122
4.9037268871915591  -2.1659259700101288 4.7502421853505457 0.0000000000000000 12.0000000000000000 123
4.9433639403977701  -2.1682665873159581 4.7592089312828643 0.0000000000000000 12.0000000000000000 124
4.9830019371939942  -2.1705604675680488 4.7680166429674795 0.0000000000000000 12.0000000000000000 125
5.0226408573598098  -2.1728089179893635 4.7766692849858661 0.0000000000000000 12.0000000000000000 126
5.0622806808637382  -2.1750132030731182 4.7851707116783269 0.0000000000000000 12.0000000000000000 127
5.1019213878709460  -2.1771745461624783 4.7935246703755325 0.0000000000000000 12.0000000000000000 128
5.1415629587499092  -2.1792941309676586 4.8017348045463288 0.0000000000000000 12.0000000000000000 129
5.1812053740780799  -2.1813731030230059 4.8098046568625401 0.0000000000000000 12.0000000000000000 130
5.2208486146466937  -2.1834125710864147 4.8177376721812699 0.0000000000000000 12.0000000000000000 131
5.2604926614647436  -2.1854136084834397 4.8255372004458428 0.0000000000000000 12.0000000000000000 132
5.3001374957622129  -2.1873772543982879 4.8332064995061907 0.0000000000000000 12.0000000000000000 133
5.3397830989926369  -2.1893045151138892 4.8407487378600047 0.0000000000000000 12.0000000000000000 134
5.3794294528350326  -2.1911963652030679 4.8481669973158681 0.0000000000000000 12.0000000000000000 135
5.4190765391952693  -2.1930537486728157 4.8554642755796582 0.0000000000000000 12.0000000000000000 136
5.4587243402069285  -2.1948775800635567 4.8626434887657721 0.0000000000000000 12.0000000000000000 137
5.4983728382316936  -2.1966687455052725 4.8697074738345236 0.0000000000000000 12.0000000000000000 138
5.5380220158593216  -2.1984281037321622 4.8766589909573419 0.0000000000000000 12.0000000000000000 139
5.5776718559072256  -2.2001564870576531 4.8835007258113405 0.0000000000000000 12.0000000000000000 140
5.6173223414197304  -2.2018547023112216 4.8902352918047587 0.0000000000000000 12.0000000000000000 141
5.6569734556670088  -2.2035235317387216 4.8968652322350765 0.0000000000000000 12.0000000000000000 142
5.6966251821437393  -2.2051637338676322 4.9033930223812643 0.0000000000000000 12.0000000000000000 143
5.7362775045675329  -2.2067760443386657 4.9098210715319786 0.0000000000000000 12.0000000000000000 144
5.7759304068771229  -2.2083611767051319 4.9161517249511597 0.0000000000000000 12.0000000000000000 145
5.8155838732303788  -2.2099198232013277 4.9223872657828895 0.0000000000000000 12.0000000000000000 146
5.8552378880021454  -2.2114526554812968 4.9285299168969781 0.0000000000000000 12.0000000000000000 147
5.8948924357819221  -2.2129603253290586 4.9345818426769812 0.0000000000000000 12.0000000000000000 148
5.9345475013714362  -2.2144434653415614 4.9405451507522367 0.0000000000000000 12.0000000000000000 149
5.9742030697820905  -2.2159026895854286 4.9464218936755149 0.0000000000000000 12.0000000000000000 150
6.0138591262323216  -2.2173385942285648 4.9522140705478401 0.0000000000000000 12.0000000000000000 151
6.0535156561448806  -2.2187517581476373 4.9579236285920043 0.0000000000000000 12.0000000000000000 152
6.0931726451440582  -2.2201427435124588 4.9635524646763489 0.0000000000000000 12.0000000000000000 153
6.1328300790528409  -2.2215120963481501 4.9691024267902817 0.0000000000000000 12.0000000000000000 154
6.1724879438900446  -2.2228603470760038 4.9745753154728787 0.0000000000000000 12.0000000000000000 155
6.2121462258674169  -2.2241880110339354 4.9799728851962097 0.0000000000000000 12.0000000000000000 156
6.2518049113867118  -2.2254955889773167 4.9852968457045970 0.0000000000000000 12.0000000000000000 157
6.2914639870367646  -2.2267835675610055 4.9905488633112896 0.0000000000000000 12.0000000000000000 158
6.3311234395905585  -2.2280524198033103 4.9957305621538017 0.0000000000000000 12.0000000000000000 159
6.3707832560023014  -2.2293026055326246 5.0008435254093131 0.0000000000000000 12.0000000000000000 160
6.4104434234045078  -2.2305345718174516 5.0058892964712953 0.0000000000000000 12.0000000000000000 161
6.4501039291051097  -2.2317487533804572 5.0108693800887165 0.0000000000000000 12.0000000000000000 162
6.4897647605845741  -2.2329455729971843 5.0157852434688825 0.0000000000000000 12.0000000000000000 163
6.5294259054930617  -2.2341254418800935 5.0206383173452567 0.0000000000000000 12.0000000000000000 164
6.5690873516476174  -2.2352887600484523 5.0254299970112388 0.0000000000000000 12.0000000000000000 165
6.6087490870293832  -2.2364359166846808 5.0301616433211027 0.0000000000000000 12.0000000000000000 166
6.6484110997808648  -2.2375672904776964 5.0348345836591850 0.0000000000000000 12.0000000000000000 167
6.6880733782032298  -2.2386832499537177 5.0394501128782334 0.0000000000000000 12.0000000000000000 168
6.7277359107536565  -2.2397841537951302 5.0440094942081188 0.0000000000000000 12.0000000000000000 169
6.7673986860427213  -2.2408703511477457 5.0485139601357210 0.0000000000000000 12.0000000000000000 170
6.8070616928318444  -2.2419421819170609 5.0529647132570554 0.0000000000000000 12.0000000000000000 171
6.8467249200307707  -2.2429999770538420 5.0573629271025053 0.0000000000000000 12.0000000000000000 172
6.8863883566951190  -2.2440440588294974 5.0617097469360388 0.0000000000000000 12.0000000000000000 173
6.9260519920239627  -2.2450747411016554 5.0660062905294065 0.0000000000000000 12.0000000000000000 174
6.9657158153574832  -2.2460923295702822 5.0702536489119137 0.0000000000000000 12.0000000000000000 175
7.0053798161746572  -2.2470971220247655 5.0744528870968528 0.0000000000000000 12.0000000000000000 176
7.0450439840910146  -2.2480894085822709 5.0786050447851601 0.0000000000000000 12.0000000000000000 177
7.0847083088564382  -2.2490694719177378 5.0827111370472133 0.0000000000000000 12.0000000000000000 178
7.1243727803530152  -2.2500375874858398 5.0867721549834064 0.0000000000000000 12.0000000000000000 179
7.1640373885929538  -2.2509940237352004 5.0907890663642528 0.0000000000000000 12.0000000000000000 180
7.2037021237165417  -2.2519390423151666 5.0947628162506726 0.0000000000000000 12.0000000000000000 181
7.2433669759901695  -2.2528728982754727 5.0986943275952274 0.0000000000000000 12.0000000000000000 182
7.2830319358043898  -2.2537958402589853 5.1025845018247660 0.0000000000000000 12.0000000000000000 183
7.3226969936720376  -2.2547081106878890 5.1064342194053198 0.0000000000000000 12.0000000000000000 184
7.3623621402264101  -2.2556099459434646 5.1102443403896167 0.0000000000000000 12.0000000000000000 185
7.4020273662194809  -2.2565015765397893 5.1140157049480068 0.0000000000000000 12.0000000000000000 186
7.4416926625201727  -2.2573832272915664 5.1177491338832244 0.0000000000000000 12.0000000000000000 187
7.4813580201126779  -2.2582551174762493 5.1214454291295306 0.0000000000000000 12.0000000000000000 188
7.5210234300948331  -2.2591174609907809 5.1251053742368837 0.0000000000000000 12.0000000000000000 189
7.5606888836765256  -2.2599704665030420 5.1287297348404302 0.0000000000000000 12.0000000000000000 190
7.6003543721781579  -2.2608143375983105 5.1323192591160476 0.0000000000000000 12.0000000000000000 191
7.6400198870291645  -2.2616492729208195 5.1358746782221951 0.0000000000000000 12.0000000000000000 192
7.6796854197665487  -2.2624754663106801 5.1393967067286468 0.0000000000000000 12.0000000000000000 193
7.7193509620334906  -2.2632931069363003 5.1428860430325170 0.0000000000000000 12.0000000000000000 194
7.7590165055779741  -2.2641023794224622 5.1463433697619987 0.0000000000000000 12.0000000000000000 195
