 # inv_tmp, energy, phys_var, phys_doublon, phys_num, step_i
0.0000000000000000  0.0060971227287263 1.1133958981915524 0.0000000000000000 12.0000000000000000 0
0.0416317406570205  -0.0402685171592738 1.1128520600889484 0.0000000000000000 12.0000000000000000 1
0.0831834501549023  -0.0864882684150596 1.1153770715659439 0.0000000000000000 12.0000000000000000 2
0.1246558648834394  -0.1325127029550808 1.1209442114707957 0.0000000000000000 12.0000000000000000 3
0.1660498821452414  -0.1782937551411150 1.1295149628116916 0.0000000000000000 12.0000000000000000 4
0.2073665518210329  -0.2237849459467023 1.1410394891001205 0.0000000000000000 12.0000000000000000 5
0.2486070671066817  -0.2689415858423325 1.1554572074639249 0.0000000000000000 12.0000000000000000 6
0.2897727544751911  -0.3137209547373466 1.1726974473812166 0.0000000000000000 12.0000000000000000 7
0.3308650630215091  -0.3580824578020190 1.1926801828482019 0.0000000000000000 12.0000000000000000 8
0.3718855533488173  -0.4019877564766497 1.2153168250923043 0.0000000000000000 12.0000000000000000 9
0.4128358861522243  -0.4454008744419958 1.2405110625756262 0.0000000000000000 12.0000000000000000 10
0.4537178106498509  -0.4882882787648208 1.2681597349898597 0.0000000000000000 12.0000000000000000 11
0.4945331530026006  -0.5306189368335320 1.2981537281989792 0.0000000000000000 12.0000000000000000 12
0.5352838048529367  -0.5723643500539143 1.3303788776093808 0.0000000000000000 12.0000000000000000 13
0.5759717121002683  -0.6134985655781746 1.3647168682007735 0.0000000000000000 12.0000000000000000 14
0.6165988640165813  -0.6539981675886706 1.4010461203937910 0.0000000000000000 12.0000000000000000 15
0.6571672827912612  -0.6938422498496342 1.4392426520183559 0.0000000000000000 12.0000000000000000 16
0.6976790135790939  -0.7330123713768815 1.4791809078368938 0.0000000000000000 12.0000000000000000 17
0.7381361151106191  -0.7714924971594788 1.5207345493269098 0.0000000000000000 12.0000000000000000 18
0.7785406509097251  -0.8092689259025529 1.5637771986992461 0.0000000000000000 12.0000000000000000 19
0.8188946811498814  -0.8463302067520020 1.6081831323874396 0.0000000000000000 12.0000000000000000 20
0.8592002551679573  -0.8826670469153926 1.6538279204597848 0.0000000000000000 12.0000000000000000 21
0.8994594046433422  -0.9182722120150429 1.7005890095550389 0.0000000000000000 12.0000000000000000 22
0.9396741374401352  -0.9531404209052949 1.7483462480056260 0.0000000000000000 12.0000000000000000 23
0.9798464321016040  -0.9872682365625033 1.7969823527753364 0.0000000000000000 12.0000000000000000 24
1.0199782329788940  -1.0206539545188846 1.8463833186923679 0.0000000000000000 12.0000000000000000 25
1.0600714459700744  -1.0532974901655383 1.8964387711990989 0.0000000000000000 12.0000000000000000 26
1.1001279348409658  -1.0852002661001665 1.9470422644660115 0.0000000000000000 12.0000000000000000 27
1.1401495180957124  -1.1163651005454815 1.9980915272317268 0.0000000000000000 12.0000000000000000 28
1.1801379663626297  -1.1467960977182168 2.0494886591387811 0.0000000000000000 12.0000000000000000 29
1.2200950002593560  -1.1764985408888504 2.1011402806430679 0.0000000000000000 12.0000000000000000 30
1.2600222887006447  -1.2054787887406357 2.1529576397919912 0.0000000000000000 12.0000000000000000 31
1.2999214476121224  -1.2337441755147189 2.2048566793019511 0.0000000000000000 12.0000000000000000 32
1.3397940390138996  -1.2613029153171842 2.2567580674293795 0.0000000000000000 12.0000000000000000 33
1.3796415704389327  -1.2881640108639423 2.3085871961312847 0.0000000000000000 12.0000000000000000 34
1.4194654946524108  -1.3143371668510500 2.3602741499605431 0.0000000000000000 12.0000000000000000 35
1.4592672096400778  -1.3398327080607078 2.4117536490475984 0.0000000000000000 12.0000000000000000 36
1.4990480588352086  -1.3646615022466533 2.4629649693916917 0.0000000000000000 12.0000000000000000 37
1.5388093315559173  -1.3888348877863008 2.5138518435298192 0.0000000000000000 12.0000000000000000 38
1.5785522636264540  -1.4123646060399280 2.5643623444766637 0.0000000000000000 12.0000000000000000 39
1.6182780381581654  -1.4352627383188024 2.6144487556402924 0.0000000000000000 12.0000000000000000 40
1.6579877864677730  -1.4575416473333949 2.6640674292216522 0.0000000000000000 12.0000000000000000 41
1.6976825891125562  -1.4792139229689649 2.7131786354053480 0.0000000000000000 12.0000000000000000 42
1.7373634770238668  -1.5002923322179260 2.7617464044488491 0.0000000000000000 12.0000000000000000 43
1.7770314327221732  -1.5207897730856870 2.8097383635797533 0.0000000000000000 12.0000000000000000 44
1.8166873915984687  -1.5407192322784322 2.8571255704191789 0.0000000000000000 12.0000000000000000 45
1.8563322432484373  -1.5600937464767395 2.9038823444650674 0.0000000000000000 12.0000000000000000 46
1.8959668328471848  -1.5789263669974805 2.9499860979938859 0.0000000000000000 12.0000000000000000 47
1.9355919625536837  -1.5972301276475402 2.9954171675740309 0.0000000000000000 12.0000000000000000 48
1.9752083929352648  -1.6150180155759606 3.0401586472294233 0.0000000000000000 12.0000000000000000 49
2.0148168444036210  -1.6323029449357576 3.0841962241481236 0.0000000000000000 12.0000000000000000 50
2.0544179986547793  -1.6490977331726100 3.1275180176982462 0.0000000000000000 12.0000000000000000 51
2.0940125001064138  -1.6654150797642824 3.1701144223916460 0.0000000000000000 12.0000000000000000 52
2.1336009573267081  -1.6812675472420768 3.2119779553252057 0.0000000000000000 12.0000000000000000 53
2.1731839444497032  -1.6966675443333896 3.2531031085289408 0.0000000000000000 12.0000000000000000 54
2.2127620025727759  -1.7116273110723714 3.2934862065597290 0.0000000000000000 12.0000000000000000 55
2.2523356411324493  -1.7261589057338105 3.3331252695984239 0.0000000000000000 12.0000000000000000 56
2.2919053392553357  -1.7402741934532990 3.3720198822359095 0.0000000000000000 12.0000000000000000 57
2.3314715470814633  -1.7539848364046435 3.4101710680698307 0.0000000000000000 12.0000000000000000 58
2.3710346870576902  -1.7673022854131382 3.4475811701776378 0.0000000000000000 12.0000000000000000 59
2.4105951551993110  -1.7802377728906753 3.4842537374825291 0.0000000000000000 12.0000000000000000 60
2.4501533223183052  -1.7928023069858612 3.5201934169864990 0.0000000000000000 12.0000000000000000 61
2.4897095352169964  -1.8050066668489926 3.5554058518081568 0.0000000000000000 12.0000000000000000 62
2.5292641178461648  -1.8168613989183913 3.5898975849321140 0.0000000000000000 12.0000000000000000 63
2.5688173724269401  -1.8283768141405428 3.6236759685505366 0.0000000000000000 12.0000000000000000 64
2.6083695805359750  -1.8395629860425058 3.6567490788559409 0.0000000000000000 12.0000000000000000 65
2.6479210041536514  -1.8504297495804032 3.6891256361266871 0.0000000000000000 12.0000000000000000 66
2.6874718866752252  -1.8609867006931051 3.7208149299325064 0.0000000000000000 12.0000000000000000 67
2.7270224538849690  -1.8712431964950591 3.7518267492766642 0.0000000000000000 12.0000000000000000 68
2.7665729148935339  -1.8812083560467721 3.7821713174831046 0.0000000000000000 12.0000000000000000 69
2.8061234630388525  -1.8908910616459296 3.8118592316315536 0.0000000000000000 12.0000000000000000 70
2.8456742767510321  -1.9002999605859543 3.8409014063398903 0.0000000000000000 12.0000000000000000 71
2.8852255203817672  -1.9094434673329104 3.8693090216917718 0.0000000000000000 12.0000000000000000 72
2.9247773449988932  -1.9183297660749830 3.8970934751073845 0.0000000000000000 12.0000000000000000 73
2.9643298891467675  -1.9269668136022833 3.9242663369567525 0.0000000000000000 12.0000000000000000 74
3.0038832795732344  -1.9353623424778019 3.9508393097176828 0.0000000000000000 12.0000000000000000 75
3.0434376319239571  -1.9435238644633639 3.9768241904840385 0.0000000000000000 12.0000000000000000 76
3.0829930514049768  -1.9514586741670885 4.0022328366344855 0.0000000000000000 12.0000000000000000 77
3.1225496334143670  -1.9591738528815805 4.0270771344770617 0.0000000000000000 12.0000000000000000 78
3.1621074641438756  -1.9666762725844504 4.0513689706905218 0.0000000000000000 12.0000000000000000 79
3.2016666211515044  -1.9739726000750080 4.0751202063896033 0.0000000000000000 12.0000000000000000 80
3.2412271739059295  -1.9810693012231702 4.0983426536476273 0.0000000000000000 12.0000000000000000 81
3.2807891843037456  -1.9879726453086157 4.1210480543167680 0.0000000000000000 12.0000000000000000 82
3.3203527071604531  -1.9946887094299888 4.1432480609927378 0.0000000000000000 12.0000000000000000 83
3.3599177906761635  -2.0012233829658643 4.1649542199779255 0.0000000000000000 12.0000000000000000 84
3.3994844768769603  -2.0075823720706247 4.1861779561034966 0.0000000000000000 12.0000000000000000 85
3.4390528020328537  -2.0137712041900926 4.2069305592782271 0.0000000000000000 12.0000000000000000 86
3.4786227970532710  -2.0197952325830797 4.2272231726382117 0.0000000000000000 12.0000000000000000 87
3.5181944878609830  -2.0256596408363228 4.2470667821786119 0.0000000000000000 12.0000000000000000 88
3.5577678957453913  -2.0313694473616195 4.2664722077548589 0.0000000000000000 12.0000000000000000 89
3.5973430376960347  -2.0369295098649629 4.2854500953472163 0.0000000000000000 12.0000000000000000 90
3.6369199267172085  -2.0423445297786866 4.3040109104887279 0.0000000000000000 12.0000000000000000 91
3.6764985721245185  -2.0476190566484931 4.3221649327624876 0.0000000000000000 12.0000000000000000 92
3.7160789798242089  -2.0527574924682663 4.3399222512800524 0.0000000000000000 12.0000000000000000 93
3.7556611525760641  -2.0577640959563057 4.3572927610580914 0.0000000000000000 12.0000000000000000 94
3.7952450902406536  -2.0626429867674947 4.3742861602158705 0.0000000000000000 12.0000000000000000 95
3.8348307900116776  -2.0673981496365617 4.3909119479211416 0.0000000000000000 12.0000000000000000 96
3.8744182466341588  -2.0720334384483436 4.4071794230168209 0.0000000000000000 12.0000000000000000 97
3.9140074526091517  -2.0765525802314575 4.4230976832653539 0.0000000000000000 12.0000000000000000 98
3.9535983983856884  -2.0809591790724813 4.4386756251522099 0.0000000000000000 12.0000000000000000 99
3.9931910725405797  -2.0852567199481444 4.4539219441938327 0.0000000000000000 12.0000000000000000 100
4.0327854619467338  -2.0894485724735730 4.4688451356995262 0.0000000000000000 12.0000000000000000 101
4.0723815519305742  -2.0935379945650499 4.4834534959402257 0.0000000000000000 12.0000000000000000 102
4.1119793264191511  -2.0975281360161238 4.4977551236807294 0.0000000000000000 12.0000000000000000 103
4.1515787680774956  -2.1014220419862566 4.5117579220351649 0.0000000000000000 12.0000000000000000 104
4.1911798584367679  -2.1052226564015930 4.5254696006086492 0.0000000000000000 12.0000000000000000 105
4.2307825780136836  -2.1089328252675656 4.5388976778907191 0.0000000000000000 12.0000000000000000 106
4.2703869064217237  -2.1125552998935593 4.5520494838693271 0.0000000000000000 12.0000000000000000 107
4.3099928224745989  -2.1160927400298495 4.5649321628361630 0.0000000000000000 12.0000000000000000 108
4.3496003042823990  -2.1195477169173627 4.5775526763567935 0.0000000000000000 12.0000000000000000 109
4.3892093293408596  -2.1229227162510513 4.5899178063813206 0.0000000000000000 12.0000000000000000 110
4.4288198746141427  -2.1262201410576784 4.6020341584731179 0.0000000000000000 12.0000000000000000 111
4.4684319166115349  -2.1294423144891215 4.6139081651354026 0.0000000000000000 12.0000000000000000 112
4.5080454314583953  -2.1325914825323413 4.6255460892169147 0.0000000000000000 12.0000000000000000 113
4.5476603949617385  -2.1356698166372805 4.6369540273799572 0.0000000000000000 12.0000000000000000 114
4.5872767826707452  -2.1386794162641296 4.6481379136153009 0.0000000000000000 12.0000000000000000 115
4.6268945699325430  -2.1416223113513366 4.6591035227901081 0.0000000000000000 12.0000000000000000 116
4.6665137319435450  -2.1445004647059993 4.6698564742162763 0.0000000000000000 12.0000000000000000 117
4.7061342437966003  -2.1473157743181459 4.6804022352278345 0.0000000000000000 12.0000000000000000 118
4.7457560805242727  -2.1500700756006177 4.6907461247571769 0.0000000000000000 12.0000000000000000 119
4.7853792171384626  -2.1527651435561741 4.7008933169010358 0.0000000000000000 12.0000000000000000 120
4.8250036286666056  -2.1554026948736045 4.7108488444679022 0.0000000000000000 12.0000000000000000 121
4.8646292901847055  -2.1579843899545099 4.7206176024997477 0.0000000000000000 12.0000000000000000 122
4.9042561768473840  -2.1605118348725494 4.7302043517614178 0.0000000000000000 12.0000000000000000 123
4.9438842639151508  -2.1629865832668913 4.7396137221921597 0.0000000000000000 12.0000000000000000 124
4.9835135267791051  -2.1654101381716320 4.7488502163141764 0.0000000000000000 12.0000000000000000 125
5.0231439409832213  -2.1677839537829335 4.7579182125938235 0.0000000000000000 12.0000000000000000 126
5.0627754822443904  -2.1701094371656189 4.7668219687517412 0.0000000000000000 12.0000000000000000 127
5.1024081264703920  -2.1723879499009908 4.7755656250186256 0.0000000000000000 12.0000000000000000 128
5.1420418497759268  -2.1746208096775383 4.7841532073338788 0.0000000000000000 12.0000000000000000 129
5.1816766284968550  -2.1768092918262774 4.7925886304847909 0.0000000000000000 12.0000000000000000 130
5.2213124392027712  -2.1789546308023824 4.8008757011844327 0.0000000000000000 12.0000000000000000 131
5.2609492587080551  -2.1810580216147430 4.8090181210866252 0.0000000000000000 12.0000000000000000 132
5.3005870640814745  -2.1831206212050964 4.8170194897367882 0.0000000000000000 12.0000000000000000 133
5.3402258326544887  -2.1851435497783211 4.8248833074578314 0.0000000000000000 12.0000000000000000 134
5.3798655420283437  -2.1871278920854298 4.8326129781703573 0.0000000000000000 12.0000000000000000 135
5.4195061700800320  -2.1890746986608374 4.8402118121468583 0.0000000000000000 12.0000000000000000 136
5.4591476949672355  -2.1909849870153555 4.8476830286997075 0.0000000000000000 12.0000000000000000 137
5.4987900951323248  -2.1928597427864265 4.8550297588029947 0.0000000000000000 12.0000000000000000 138
5.5384333493054809  -2.1946999208469626 4.8622550476483823 0.0000000000000000 12.0000000000000000 139
5.5780774365070318  -2.1965064463742592 4.8693618571353854 0.0000000000000000 12.0000000000000000 140
5.6177223360490558  -2.1982802158802714 4.8763530682965683 0.0000000000000000 12.0000000000000000 141
5.6573680275363278  -2.2000220982046383 4.8832314836582906 0.0000000000000000 12.0000000000000000 142
5.6970144908666569  -2.2017329354716719 4.8899998295377038 0.0000000000000000 12.0000000000000000 143
5.7366617062306791  -2.2034135440126530 4.8966607582769468 0.0000000000000000 12.0000000000000000 144
5.7763096541111523  -2.2050647152545482 4.9032168504152693 0.0000000000000000 12.0000000000000000 145
5.8159583152817982  -2.2066872165764244 4.9096706168002768 0.0000000000000000 12.0000000000000000 146
5.8556076708057461  -2.2082817921346360 4.9160245006392183 0.0000000000000000 12.0000000000000000 147
5.8952577020336072  -2.2098491636579185 4.9222808794913995 0.0000000000000000 12.0000000000000000 148
5.9349083906012297  -2.2113900312135097 4.9284420672030320 0.0000000000000000 12.0000000000000000 149
5.9745597184271597  -2.2129050739452492 4.9345103157854640 0.0000000000000000 12.0000000000000000 150
6.0142116677098461  -2.2143949507847522 4.9404878172381519 0.0000000000000000 12.0000000000000000 151
6.0538642209246216  -2.2158603011366051 4.9463767053176371 0.0000000000000000 12.0000000000000000 152
6.0935173608204884  -2.2173017455385238 4.9521790572535922 0.0000000000000000 12.0000000000000000 153
6.1331710704167230  -2.2187198862973769 4.9578968954133593 0.0000000000000000 12.0000000000000000 154
6.1728253329993397  -2.2201153081020073 4.9635321889161785 0.0000000000000000 12.0000000000000000 155
6.2124801321174346  -2.2214885786136556 4.9690868551983414 0.0000000000000000 12.0000000000000000 156
6.2521354515794085  -2.2228402490348449 4.9745627615306081 0.0000000000000000 12.0000000000000000 157
6.2917912754491194  -2.2241708546574994 4.9799617264890408 0.0000000000000000 12.0000000000000000 158
6.3314475880419510  -2.2254809153910964 4.9852855213805727 0.0000000000000000 12.0000000000000000 159
6.3711043739208417  -2.2267709362715693 4.9905358716245249 0.0000000000000000 12.0000000000000000 160
6.4107616178922626  -2.2280414079516917 4.9957144580913138 0.0000000000000000 12.0000000000000000 161
6.4504193050021819  -2.2292928071736320 5.0008229183994866 0.0000000000000000 12.0000000000000000 162
6.4900774205319918  -2.2305255972243550 5.0058628481723932 0.0000000000000000 12.0000000000000000 163
6.5297359499944632  -2.2317402283744840 5.0108358022555040 0.0000000000000000 12.0000000000000000 164
6.5693948791296872  -2.2329371383012915 5.0157432958957111 0.0000000000000000 12.0000000000000000 165
6.6090541939010281  -2.2341167524963685 5.0205868058835810 0.0000000000000000 12.0000000000000000 166
6.6487138804911128  -2.2352794846585828 5.0253677716597540 0.0000000000000000 12.0000000000000000 167
6.6883739252978502  -2.2364257370728637 5.0300875963865543 0.0000000000000000 12.0000000000000000 168
6.7280343149304729  -2.2375559009753494 5.0347476479858830 0.0000000000000000 12.0000000000000000 169
6.7676950362056338  -2.2386703569054234 5.0393492601443883 0.0000000000000000 12.0000000000000000 170
6.8073560761435576  -2.2397694750451156 5.0438937332870184 0.0000000000000000 12.0000000000000000 171
6.8470174219642201  -2.2408536155463654 5.0483823355198076 0.0000000000000000 12.0000000000000000 172
6.8866790610836057  -2.2419231288465999 5.0528163035430191 0.0000000000000000 12.0000000000000000 173
6.9263409811100232  -2.2429783559730465 5.0571968435354622 0.0000000000000000 12.0000000000000000 174
6.9660031698404676  -2.2440196288362566 5.0615251320109795 0.0000000000000000 12.0000000000000000 175
7.0056656152570618  -2.2450472705131981 5.0658023166479058 0.0000000000000000 12.0000000000000000 176
7.0453283055235669  -2.2460615955203318 5.0700295170925020 0.0000000000000000 12.0000000000000000 177
7.0849912289819459  -2.2470629100770587 5.0742078257370498 0.0000000000000000 12.0000000000000000 178
7.1246543741490163  -2.2480515123598899 5.0783383084735600 0.0000000000000000 12.0000000000000000 179
7.1643177297131633  -2.2490276927476893 5.0824220054238127 0.0000000000000000 12.0000000000000000 180
7.2039812845311237  -2.2499917340583497 5.0864599316465080 0.0000000000000000 12.0000000000000000 181
7.2436450276248516  -2.2509439117771701 5.0904530778223247 0.0000000000000000 12.0000000000000000 182
7.2833089481784503  -2.2518844942773319 5.0944024109175654 0.0000000000000000 12.0000000000000000 183
7.3229730355351794  -2.2528137430326853 5.0983088748271141 0.0000000000000000 12.0000000000000000 184
7.3626372791945318  -2.2537319128231998 5.1021733909973817 0.0000000000000000 12.0000000000000000 185
7.4023016688093932  -2.2546392519333076 5.1059968590299016 0.0000000000000000 12.0000000000000000 186
7.4419661941832640  -2.2555360023434616 5.1097801572662256 0.0000000000000000 12.0000000000000000 187
7.4816308452675537  -2.2564223999151003 5.1135241433547565 0.0000000000000000 12.0000000000000000 188
7.5212956121589523  -2.2572986745693040 5.1172296548000418 0.0000000000000000 12.0000000000000000 189
7.5609604850968708  -2.2581650504593935 5.1208975094952631 0.0000000000000000 12.0000000000000000 190
7.6006254544609435  -2.2590217461376572 5.1245285062382679 0.0000000000000000 12.0000000000000000 191
7.6402905107686161  -2.2598689747164444 5.1281234252319141 0.0000000000000000 12.0000000000000000 192
7.6799556446727717  -2.2607069440238519 5.1316830285691006 0.0000000000000000 12.0000000000000000 193
7.7196208469594643  -2.2615358567541661 5.1352080607030279 0.0000000000000000 12.0000000000000000 194
7.7592861085456653  -2.2623559106133153 5.1386992489032437 0.0000000000000000 12.0000000000000000 195
