 # inv_tmp, energy, phys_var, phys_doublon, phys_num, step_i
0.0000000000000000  0.0026370925261178 1.1088361845288819 0.0000000000000000 12.0000000000000000 0
0.0416289045451713  -0.0435414251607720 1.1090901010990200 0.0000000000000000 12.0000000000000000 1
0.0831780745223069  -0.0895960019760982 1.1124807673239312 0.0000000000000000 12.0000000000000000 2
0.1246481774002627  -0.1354812010861703 1.1189800639747687 0.0000000000000000 12.0000000000000000 3
0.1660400296247292  -0.1811525695398684 1.1285480723527219 0.0000000000000000 12.0000000000000000 4
0.2073545902447232  -0.2265668109774742 1.1411335222627388 0.0000000000000000 12.0000000000000000 5
0.2485929538016486  -0.2716819462821743 1.1566743300372426 0.0000000000000000 12.0000000000000000 6
0.2897563425724886  -0.3164574611429165 1.1750982174312967 0.0000000000000000 12.0000000000000000 7
0.3308460982621991  -0.3608544396972886 1.1963234013113970 0.0000000000000000 12.0000000000000000 8
0.3718636732422488  -0.4048356836242702 1.2202593433970206 0.0000000000000000 12.0000000000000000 9
0.4128106214325523  -0.4483658162553572 1.2468075488897175 0.0000000000000000 12.0000000000000000 10
0.4536885889228999  -0.4914113714653976 1.2758624026346910 0.0000000000000000 12.0000000000000000 11
0.4944993044275076  -0.5339408672886049 1.3073120314938664 0.0000000000000000 12.0000000000000000 12
0.5352445696626644  -0.5759248643781417 1.3410391818516914 0.0000000000000000 12.0000000000000000 13
0.5759262497327773  -0.6173360095874336 1.3769221016048101 0.0000000000000000 12.0000000000000000 14
0.6165462636045835  -0.6581490650963218 1.4148354165809536 0.0000000000000000 12.0000000000000000 15
0.6571065747430787  -0.6983409236342497 1.4546509920646122 0.0000000000000000 12.0000000000000000 16
0.6976091819759532  -0.7378906104650347 1.4962387709501710 0.0000000000000000 12.0000000000000000 17
0.7380561106462067  -0.7767792728931117 1.5394675809694911 0.0000000000000000 12.0000000000000000 18
0.7784494041052608  -0.8149901581294061 1.5842059044233345 0.0000000000000000 12.0000000000000000 19
0.8187911155914507  -0.8525085804163288 1.6303226048585948 0.0000000000000000 12.0000000000000000 20
0.8590833005313885  -0.8893218783565888 1.6776876061523538 0.0000000000000000 12.0000000000000000 21
0.8993280092944369  -0.9254193634199869 1.7261725204674003 0.0000000000000000 12.0000000000000000 22
0.9395272804235452  -0.9607922606173798 1.7756512225135719 0.0000000000000000 12.0000000000000000 23
0.9796831343590279  -0.9954336423324286 1.8260003684688728 0.0000000000000000 12.0000000000000000 24
1.0197975676656164  -1.0293383562909311 1.8770998587711445 0.0000000000000000 12.0000000000000000 25
1.0598725477672863  -1.0625029486257731 1.9288332447750376 0.0000000000000000 12.0000000000000000 26
1.0999100081890738  -1.0949255829640876 1.9810880799732065 0.0000000000000000 12.0000000000000000 27
1.1399118443002809  -1.1266059564236106 2.0337562171006511 0.0000000000000000 12.0000000000000000 28
1.1798799095492329  -1.1575452133586996 2.0867340529750313 0.0000000000000000 12.0000000000000000 29
1.2198160121760313  -1.1877458576444950 2.1399227233739317 0.0000000000000000 12.0000000000000000 30
1.2597219123865642  -1.2172116642314950 2.1932282506144078 0.0000000000000000 12.0000000000000000 31
1.2995993199684017  -1.2459475906436166 2.2465616467844680 0.0000000000000000 12.0000000000000000 32
1.3394498923270302  -1.2739596890317515 2.2998389757852533 0.0000000000000000 12.0000000000000000 33
1.3792752329192097  -1.3012550193330830 2.3529813774824406 0.0000000000000000 12.0000000000000000 34
1.4190768900590174  -1.3278415640246184 2.4059150573420118 0.0000000000000000 12.0000000000000000 35
1.4588563560712868  -1.3537281448988236 2.4585712449462283 0.0000000000000000 12.0000000000000000 36
1.4986150667667200  -1.3789243422301196 2.5108861247570435 0.0000000000000000 12.0000000000000000 37
1.5383544012128170  -1.4034404166443499 2.5628007424234789 0.0000000000000000 12.0000000000000000 38
1.5780756817749315  -1.4272872339493556 2.6142608898234587 0.0000000000000000 12.0000000000000000 39
1.6177801744021949  -1.4504761931340606 2.6652169718956196 0.0000000000000000 12.0000000000000000 40
1.6574690891336847  -1.4730191576961624 2.7156238581589864 0.0000000000000000 12.0000000000000000 41
1.6971435808010460  -1.4949283904148449 2.7654407216434445 0.0000000000000000 12.0000000000000000 42
1.7368047499047259  -1.5162164916451391 2.8146308677670859 0.0000000000000000 12.0000000000000000 43
1.7764536436420941  -1.5368963411744001 2.8631615555019332 0.0000000000000000 12.0000000000000000 44
1.8160912570668735  -1.5569810436491498 2.9110038129715683 0.0000000000000000 12.0000000000000000 45
1.8557185343605467  -1.5764838775519670 2.9581322494259892 0.0000000000000000 12.0000000000000000 46
1.8953363701976931  -1.5954182476830399 3.0045248653435479 0.0000000000000000 12.0000000000000000 47
1.9349456111884746  -1.6137976410795694 3.0501628622197963 0.0000000000000000 12.0000000000000000 48
1.9745470573828023  -1.6316355862877163 3.0950304534197088 0.0000000000000000 12.0000000000000000 49
2.0141414638219857  -1.6489456158866074 3.1391146772955469 0.0000000000000000 12.0000000000000000 50
2.0537295421249016  -1.6657412321513418 3.1824052136077943 0.0000000000000000 12.0000000000000000 51
2.0933119620969562  -1.6820358757320371 3.2248942041325179 0.0000000000000000 12.0000000000000000 52
2.1328893533512492  -1.6978428972183393 3.2665760781955440 0.0000000000000000 12.0000000000000000 53
2.1724623069324709  -1.7131755314533412 3.3074473837419687 0.0000000000000000 12.0000000000000000 54
2.2120313769351214  -1.7280468744572821 3.3475066244293239 0.0000000000000000 12.0000000000000000 55
2.2515970821086175  -1.7424698628194004 3.3867541031233728 0.0000000000000000 12.0000000000000000 56
2.2911599074427942  -1.7564572554158771 3.4251917720773912 0.0000000000000000 12.0000000000000000 57
2.3307203057281622  -1.7700216173125680 3.4628230899878858 0.0000000000000000 12.0000000000000000 58
2.3702786990860840  -1.7831753057130513 3.4996528860419698 0.0000000000000000 12.0000000000000000 59
2.4098354804647770  -1.7959304578153172 3.5356872310033975 0.0000000000000000 12.0000000000000000 60
2.4493910150977150  -1.8082989804439198 3.5709333153245231 0.0000000000000000 12.0000000000000000 61
2.4889456419216236  -1.8202925413285258 3.6053993342204587 0.0000000000000000 12.0000000000000000 62
2.5284996749518269  -1.8319225619044497 3.6390943795977932 0.0000000000000000 12.0000000000000000 63
2.5680534046131940  -1.8432002115157129 3.6720283386935426 0.0000000000000000 12.0000000000000000 64
2.6076070990254090  -1.8541364029064837 3.7042117992495713 0.0000000000000000 12.0000000000000000 65
2.6471610052416712  -1.8647417888921107 3.7356559610229052 0.0000000000000000 12.0000000000000000 66
2.6867153504403141  -1.8750267601066564 3.7663725534126993 0.0000000000000000 12.0000000000000000 67
2.7262703430691304  -1.8850014437293170 3.7963737589696667 0.0000000000000000 12.0000000000000000 68
2.7658261739424841  -1.8946757030977952 3.8256721425425075 0.0000000000000000 12.0000000000000000 69
2.8053830172915282  -1.9040591381221585 3.8542805858086475 0.0000000000000000 12.0000000000000000 70
2.8449410317680606  -1.9131610864182043 3.8822122269319355 0.0000000000000000 12.0000000000000000 71
2.8845003614027247  -1.9219906250846119 3.9094804050884640 0.0000000000000000 12.0000000000000000 72
2.9240611365184290  -1.9305565730533112 3.9360986096021291 0.0000000000000000 12.0000000000000000 73
2.9636234745999666  -1.9388674939474952 3.9620804334341977 0.0000000000000000 12.0000000000000000 74
3.0031874811209436  -1.9469316993863752 3.9874395307751946 0.0000000000000000 12.0000000000000000 75
3.0427532503292061  -1.9547572526804773 4.0121895784932153 0.0000000000000000 12.0000000000000000 76
3.0823208659920032  -1.9623519728654835 4.0363442411991901 0.0000000000000000 12.0000000000000000 77
3.1218904021022142  -1.9697234390268585 4.0599171396973563 0.0000000000000000 12.0000000000000000 78
3.1614619235469679  -1.9768789948713354 4.0829218225973438 0.0000000000000000 12.0000000000000000 79
3.2010354867400301  -1.9838257535050849 4.1053717408730801 0.0000000000000000 12.0000000000000000 80
3.2406111402193409  -1.9905706023818102 4.1272802251628846 0.0000000000000000 12.0000000000000000 81
3.2801889252110978  -1.9971202083873014 4.1486604656142738 0.0000000000000000 12.0000000000000000 82
3.3197688761617519  -2.0034810230300701 4.1695254940868507 0.0000000000000000 12.0000000000000000 83
3.3593510212393110  -2.0096592877104245 4.1898881685357425 0.0000000000000000 12.0000000000000000 84
3.3989353828052944  -2.0156610390431577 4.2097611594077522 0.0000000000000000 12.0000000000000000 85
3.4385219778586711  -2.0214921142113704 4.2291569378916023 0.0000000000000000 12.0000000000000000 86
3.4781108184530973  -2.0271581563313044 4.2480877658728362 0.0000000000000000 12.0000000000000000 87
3.5177019120887203  -2.0326646198101912 4.2665656874527738 0.0000000000000000 12.0000000000000000 88
3.5572952620798035  -2.0380167756810712 4.2846025218995845 0.0000000000000000 12.0000000000000000 89
3.5968908678993605  -2.0432197169003294 4.3022098579079024 0.0000000000000000 12.0000000000000000 90
3.6364887255019900  -2.0482783635954362 4.3193990490514418 0.0000000000000000 12.0000000000000000 91
3.6760888276260282  -2.0531974682518461 4.3361812103206585 0.0000000000000000 12.0000000000000000 92
3.7156911640761057  -2.0579816208294250 4.3525672156450455 0.0000000000000000 12.0000000000000000 93
3.7552957219871752  -2.0626352538001380 4.3685676963064628 0.0000000000000000 12.0000000000000000 94
3.7949024860709990  -2.0671626470997797 4.3841930401567071 0.0000000000000000 12.0000000000000000 95
3.8345114388460781  -2.0715679329877523 4.3994533915587679 0.0000000000000000 12.0000000000000000 96
3.8741225608519465  -2.0758551008097292 4.4143586519771674 0.0000000000000000 12.0000000000000000 97
3.9137358308487151  -2.0800280016590458 4.4289184811485320 0.0000000000000000 12.0000000000000000 98
3.9533512260027170  -2.0840903529333703 4.4431422987686346 0.0000000000000000 12.0000000000000000 99
3.9929687220590560  -2.0880457427840584 4.4570392866374586 0.0000000000000000 12.0000000000000000 100
4.0325882935018411  -2.0918976344560436 4.4706183912080881 0.0000000000000000 12.0000000000000000 101
4.0722099137028289  -2.0956493705169486 4.4838883264900637 0.0000000000000000 12.0000000000000000 102
4.1118335550591780  -2.0993041769744614 4.4968575772615864 0.0000000000000000 12.0000000000000000 103
4.1514591891209731  -2.1028651672815220 4.5095344025489830 0.0000000000000000 12.0000000000000000 104
4.1910867867091612  -2.1063353462293413 4.5219268393353049 0.0000000000000000 12.0000000000000000 105
4.2307163180244745  -2.1097176137285985 4.5340427064633646 0.0000000000000000 12.0000000000000000 106
4.2703477527479254  -2.1130147684794882 4.5458896087014908 0.0000000000000000 12.0000000000000000 107
4.3099810601334037  -2.1162295115316088 4.5574749409431838 0.0000000000000000 12.0000000000000000 108
4.3496162090928694  -2.1193644497349351 4.5688058925146207 0.0000000000000000 12.0000000000000000 109
4.3892531682746379  -2.1224220990832765 4.5798894515662045 0.0000000000000000 12.0000000000000000 110
4.4288919061351999  -2.1254048879519059 4.5907324095268462 0.0000000000000000 12.0000000000000000 111
4.4685323910050023  -2.1283151602311547 4.6013413656016722 0.0000000000000000 12.0000000000000000 112
4.5081745911485891  -2.1311551783578793 4.6117227312957523 0.0000000000000000 12.0000000000000000 113
4.5478184748194979  -2.1339271262468937 4.6218827349483202 0.0000000000000000 12.0000000000000000 114
4.5874640103102440  -2.1366331121244944 4.6318274262635946 0.0000000000000000 12.0000000000000000 115
4.6271111659977473  -2.1392751712663154 4.6415626808256736 0.0000000000000000 12.0000000000000000 116
4.6667599103845143  -2.1418552686417764 4.6510942045866681 0.0000000000000000 12.0000000000000000 117
4.7064102121358644  -2.1443753014674964 4.6604275383181557 0.0000000000000000 12.0000000000000000 118
4.7460620401134852  -2.1468371016719945 4.6695680620175013 0.0000000000000000 12.0000000000000000 119
4.7857153634055924  -2.1492424382740793 4.6785209992614307 0.0000000000000000 12.0000000000000000 120
4.8253701513539067  -2.1515930196773470 4.6872914215004684 0.0000000000000000 12.0000000000000000 121
4.8650263735777148  -2.1538904958831022 4.6958842522883870 0.0000000000000000 12.0000000000000000 122
4.9046839999952123  -2.1561364606241962 4.7043042714420453 0.0000000000000000 12.0000000000000000 123
4.9443430008423288  -2.1583324534220685 4.7125561191273624 0.0000000000000000 12.0000000000000000 124
4.9840033466892342  -2.1604799615693646 4.7206442998680496 0.0000000000000000 12.0000000000000000 125
5.0236650084547092  -2.1625804220404783 4.7285731864742777 0.0000000000000000 12.0000000000000000 126
5.0633279574185179  -2.1646352233322772 4.7363470238890129 0.0000000000000000 12.0000000000000000 127
5.1029921652319716  -2.1666457072372789 4.7439699329501446 0.0000000000000000 12.0000000000000000 128
5.1426576039268230  -2.1686131705514917 4.7514459140671947 0.0000000000000000 12.0000000000000000 129
5.1823242459225893  -2.1705388667190939 4.7587788508115825 0.0000000000000000 12.0000000000000000 130
5.2219920640324915  -2.1724240074160717 4.7659725134198796 0.0000000000000000 12.0000000000000000 131
5.2616610314680772  -2.1742697640749267 4.7730305622097831 0.0000000000000000 12.0000000000000000 132
5.3013311218426589  -2.1760772693524224 4.7799565509088993 0.0000000000000000 12.0000000000000000 133
5.3410023091736747  -2.1778476185424385 4.7867539298965385 0.0000000000000000 12.0000000000000000 134
5.3806745678840562  -2.1795818709357810 4.7934260493590077 0.0000000000000000 12.0000000000000000 135
5.4203478728026822  -2.1812810511288867 4.7999761623592772 0.0000000000000000 12.0000000000000000 136
5.4600221991640376  -2.1829461502832381 4.8064074278216387 0.0000000000000000 12.0000000000000000 137
5.4996975226071196  -2.1845781273372311 4.8127229134326246 0.0000000000000000 12.0000000000000000 138
5.5393738191736634  -2.1861779101722867 4.8189255984592103 0.0000000000000000 12.0000000000000000 139
5.5790510653057845  -2.1877463967348230 4.8250183764856258 0.0000000000000000 12.0000000000000000 140
5.6187292378430662  -2.1892844561157272 4.8310040580701505 0.0000000000000000 12.0000000000000000 141
5.6584083140191606  -2.1907929295889113 4.8368853733233141 0.0000000000000000 12.0000000000000000 142
5.6980882714579586  -2.1922726316104839 4.8426649744091224 0.0000000000000000 12.0000000000000000 143
5.7377690881693821  -2.1937243507799460 4.8483454379707336 0.0000000000000000 12.0000000000000000 144
5.7774507425448274  -2.1951488507649386 4.8539292674823917 0.0000000000000000 12.0000000000000000 145
5.8171332133523084  -2.1965468711908187 4.8594188955291244 0.0000000000000000 12.0000000000000000 146
5.8568164797313571  -2.1979191284964603 4.8648166860159900 0.0000000000000000 12.0000000000000000 147
5.8965005211876811  -2.1992663167575297 4.8701249363085610 0.0000000000000000 12.0000000000000000 148
5.9361853175876380  -2.2005891084785021 4.8753458793063000 0.0000000000000000 12.0000000000000000 149
5.9758708491525478  -2.2018881553545762 4.8804816854506479 0.0000000000000000 12.0000000000000000 150
6.0155570964528700  -2.2031640890046864 4.8855344646694485 0.0000000000000000 12.0000000000000000 151
6.0552440404022665  -2.2044175216767017 4.8905062682595180 0.0000000000000000 12.0000000000000000 152
6.0949316622515948  -2.2056490469258607 4.8953990907089553 0.0000000000000000 12.0000000000000000 153
6.1346199435828082  -2.2068592402675331 4.9002148714609941 0.0000000000000000 12.0000000000000000 154
6.1743088663028409  -2.2080486598052467 4.9049554966209419 0.0000000000000000 12.0000000000000000 155
6.2139984126374408  -2.2092178468349717 4.9096228006079565 0.0000000000000000 12.0000000000000000 156
6.2536885651250049  -2.2103673264265677 4.9142185677532773 0.0000000000000000 12.0000000000000000 157
6.2933793066104062  -2.2114976079832966 4.9187445338463940 0.0000000000000000 12.0000000000000000 158
6.3330706202388454  -2.2126091857802352 4.9232023876308837 0.0000000000000000 12.0000000000000000 159
6.3727624894497241  -2.2137025394824366 4.9275937722513303 0.0000000000000000 12.0000000000000000 160
6.4124548979705516  -2.2147781346436077 4.9319202866529093 0.0000000000000000 12.0000000000000000 161
6.4521478298109169  -2.2158364231860674 4.9361834869350600 0.0000000000000000 12.0000000000000000 162
6.4918412692564900  -2.2168778438627421 4.9403848876607457 0.0000000000000000 12.0000000000000000 163
6.5315352008631073  -2.2179028227018636 4.9445259631226737 0.0000000000000000 12.0000000000000000 164
6.5712296094509224  -2.2189117734350612 4.9486081485678284 0.0000000000000000 12.0000000000000000 165
6.6109244800986291  -2.2199050979095194 4.9526328413817611 0.0000000000000000 12.0000000000000000 166
6.6506197981377708  -2.2208831864847802 4.9566014022337761 0.0000000000000000 12.0000000000000000 167
6.6903155491471304  -2.2218464184148488 4.9605151561844929 0.0000000000000000 12.0000000000000000 168
6.7300117189472166  -2.2227951622161082 4.9643753937568142 0.0000000000000000 12.0000000000000000 169
6.7697082935948396  -2.2237297760216679 4.9681833719716844 0.0000000000000000 12.0000000000000000 170
6.8094052593777858  -2.2246506079226229 4.9719403153496540 0.0000000000000000 12.0000000000000000 171
6.8491026028095865  -2.2255579962967662 4.9756474168795242 0.0000000000000000 12.0000000000000000 172
6.8888003106243936  -2.2264522701252392 4.9793058389550753 0.0000000000000000 12.0000000000000000 173
6.9284983697719520  -2.2273337492975749 4.9829167142809769 0.0000000000000000 12.0000000000000000 174
6.9681967674126817  -2.2282027449056070 4.9864811467489414 0.0000000000000000 12.0000000000000000 175
7.0078954909128495  -2.2290595595266782 4.9900002122851079 0.0000000000000000 12.0000000000000000 176
7.0475945278398706  -2.2299044874965412 4.9934749596696308 0.0000000000000000 12.0000000000000000 177
7.0872938659576850  -2.2307378151723922 4.9969064113294062 0.0000000000000000 12.0000000000000000 178
7.1269934932222592  -2.2315598211863761 5.0002955641048796 0.0000000000000000 12.0000000000000000 179
7.1666933977771929  -2.2323707766899741 5.0036433899917991 0.0000000000000000 12.0000000000000000 180
7.2063935679494087  -2.2331709455895998 5.0069508368587776 0.0000000000000000 12.0000000000000000 181
7.2460939922449743  -2.2339605847737629 5.0102188291414578 0.0000000000000000 12.0000000000000000 182
7.2857946593450027  -2.2347399443321079 5.0134482685141730 0.0000000000000000 12.0000000000000000 183
7.3254955581016716  -2.2355092677666626 5.0166400345397673 0.0000000000000000 12.0000000000000000 184
7.3651966775343212  -2.2362687921955748 5.0197949852983701 0.0000000000000000 12.0000000000000000 185
7.4048980068256860  -2.2370187485496573 5.0229139579959110 0.0000000000000000 12.0000000000000000 186
7.4445995353181846  -2.2377593617619747 5.0259977695529301 0.0000000000000000 12.0000000000000000 187
7.4843012525103356  -2.2384908509507850 5.0290472171745462 0.0000000000000000 12.0000000000000000 188
7.5240031480532519  -2.2392134295960631 5.0320630789020111 0.0000000000000000 12.0000000000000000 189
7.5637052117472390  -2.2399273057098461 5.0350461141467244 0.0000000000000000 12.0000000000000000 190
7.6034074335384769  -2.2406326820006606 5.0379970642071097 0.0000000000000000 12.0000000000000000 191
7.6431098035157969  -2.2413297560322518 5.0409166527690585 0.0000000000000000 12.0000000000000000 192
7.6828123119075391  -2.2420187203768029 5.0438055863904658 0.0000000000000000 12.0000000000000000 193
7.7225149490785157  -2.2426997627628964 5.0466645549704383 0.0000000000000000 12.0000000000000000 194
7.7622177055270241  -2.2433730662183855 5.0494942322036183 0.0000000000000000 12.0000000000000000 195
