 # inv_tmp, energy, phys_var, phys_doublon, phys_num, step_i
0.0000000000000000  -0.0065294698909296 1.1348926874943541 0.0000000000000000 12.0000000000000000 0
0.0416200447335679  -0.0537686300691703 1.1347173965183011 0.0000000000000000 12.0000000000000000 1
0.0831586611040689  -0.1008225348193277 1.1377199477533493 0.0000000000000000 12.0000000000000000 2
0.1246166993074302  -0.1476401906454113 1.1438654703171292 0.0000000000000000 12.0000000000000000 3
0.1659951739643389  -0.1941722096008451 1.1531066627503959 0.0000000000000000 12.0000000000000000 4
0.2072952547004311  -0.2403710323775283 1.1653844000941735 0.0000000000000000 12.0000000000000000 5
0.2485182558330679  -0.2861911281902523 1.1806284393773772 0.0000000000000000 12.0000000000000000 6
0.2896656253276108  -0.3315891699819487 1.1987582098730325 0.0000000000000000 12.0000000000000000 7
0.3307389331890851  -0.3765241839632948 1.2196836736022452 0.0000000000000000 12.0000000000000000 8
0.3717398594543734  -0.4209576729806682 1.2433062410740332 0.0000000000000000 12.0000000000000000 9
0.4126701819458941  -0.4648537136667638 1.2695197271344811 0.0000000000000000 12.0000000000000000 10
0.4535317639404922  -0.5081790277573908 1.2982113320360396 0.0000000000000000 12.0000000000000000 11
0.4943265418974243  -0.5509030283470830 1.3292626333931423 0.0000000000000000 12.0000000000000000 12
0.5350565133773562  -0.5929978421982796 1.3625505755216378 0.0000000000000000 12.0000000000000000 13
0.5757237252707257  -0.6344383095093246 1.3979484437193357 0.0000000000000000 12.0000000000000000 14
0.6163302624391404  -0.6752019627826634 1.4353268122829606 0.0000000000000000 12.0000000000000000 15
0.6568782368581746  -0.7152689866159495 1.4745544564223187 0.0000000000000000 12.0000000000000000 16
0.6973697773344517  -0.7546221603663472 1.5154992196758925 0.0000000000000000 12.0000000000000000 17
0.7378070198546347  -0.7932467857148376 1.5580288299072074 0.0000000000000000 12.0000000000000000 18
0.7781920986092524  -0.8311306011867474 1.6020116584268220 0.0000000000000000 12.0000000000000000 19
0.8185271377204280  -0.8682636856717186 1.6473174182039028 0.0000000000000000 12.0000000000000000 20
0.8588142436897931  -0.9046383529364941 1.6938177984747713 0.0000000000000000 12.0000000000000000 21
0.8990554985712949  -0.9402490390428461 1.7413870342989841 0.0000000000000000 12.0000000000000000 22
0.9392529538633597  -0.9750921844766174 1.7899024107395727 0.0000000000000000 12.0000000000000000 23
0.9794086251060050  -1.0091661126680198 1.8392447023410721 0.0000000000000000 12.0000000000000000 24
1.0195244871610025  -1.0424709064433180 1.8892985494407923 0.0000000000000000 12.0000000000000000 25
1.0596024701470439  -1.0750082837989394 1.9399527735740234 0.0000000000000000 12.0000000000000000 26
1.0996444559970153  -1.1067814742355004 1.9911006348253302 0.0000000000000000 12.0000000000000000 27
1.1396522756008065  -1.1377950967348289 2.0426400344411806 0.0000000000000000 12.0000000000000000 28
1.1796277064945380  -1.1680550403116174 2.0944736663630725 0.0000000000000000 12.0000000000000000 29
1.2195724710554841  -1.1975683479250332 2.1465091215745482 0.0000000000000000 12.0000000000000000 30
1.2594882351612653  -1.2263431043970847 2.1986589492921040 0.0000000000000000 12.0000000000000000 31
1.2993766072718909  -1.2543883288551267 2.2508406790808797 0.0000000000000000 12.0000000000000000 32
1.3392391378938875  -1.2817138720966896 2.3029768079530952 0.0000000000000000 12.0000000000000000 33
1.3790773193868928  -1.3083303191668030 2.3549947564231859 0.0000000000000000 12.0000000000000000 34
1.4188925860746757  -1.3342488973410742 2.4068267973589768 0.0000000000000000 12.0000000000000000 35
1.4586863146244025  -1.3594813896223450 2.4584099612945143 0.0000000000000000 12.0000000000000000 36
1.4984598246600818  -1.3840400537842528 2.5096859216663816 0.0000000000000000 12.0000000000000000 37
1.5382143795783765  -1.4079375469312296 2.5606008632106869 0.0000000000000000 12.0000000000000000 38
1.5779511875373098  -1.4311868554905669 2.6111053365193877 0.0000000000000000 12.0000000000000000 39
1.6176714025907597  -1.4538012305076879 2.6611541015094997 0.0000000000000000 12.0000000000000000 40
1.6573761259440083  -1.4757941280796660 2.7107059623118230 0.0000000000000000 12.0000000000000000 41
1.6970664073079120  -1.4971791547336990 2.7597235958420030 0.0000000000000000 12.0000000000000000 42
1.7367432463314800  -1.5179700175357920 2.8081733760797247 0.0000000000000000 12.0000000000000000 43
1.7764075940947908  -1.5381804786994324 2.8560251958540568 0.0000000000000000 12.0000000000000000 44
1.8160603546461724  -1.5578243144539816 2.9032522877170543 0.0000000000000000 12.0000000000000000 45
1.8557023865694451  -1.5769152779268283 2.9498310452846010 0.0000000000000000 12.0000000000000000 46
1.8953345045687910  -1.5954670657916450 2.9957408462346238 0.0000000000000000 12.0000000000000000 47
1.9349574810603929  -1.6134932884366040 3.0409638779783617 0.0000000000000000 12.0000000000000000 48
1.9745720477614781  -1.6310074434103814 3.0854849668605735 0.0000000000000000 12.0000000000000000 49
2.0141788972687236  -1.6480228919101949 3.1292914115994246 0.0000000000000000 12.0000000000000000 50
2.0537786846191883  -1.6645528380838313 3.1723728215456086 0.0000000000000000 12.0000000000000000 51
2.0933720288280329  -1.6806103109269339 3.2147209602227251 0.0000000000000000 12.0000000000000000 52
2.1329595143982218  -1.6962081485668052 3.2563295945062891 0.0000000000000000 12.0000000000000000 53
2.1725416927983101  -1.7113589847346973 3.2971943497061122 0.0000000000000000 12.0000000000000000 54
2.2121190839051281  -1.7260752372396242 3.3373125707354254 0.0000000000000000 12.0000000000000000 55
2.2516921774088732  -1.7403690982679583 3.3766831894792713 0.0000000000000000 12.0000000000000000 56
2.2912614341786868  -1.7542525263442170 3.4153065984130828 0.0000000000000000 12.0000000000000000 57
2.3308272875873115  -1.7677372397995430 3.4531845304698314 0.0000000000000000 12.0000000000000000 58
2.3703901447938458  -1.7808347116050549 3.4903199451090448 0.0000000000000000 12.0000000000000000 59
2.4099503879840043  -1.7935561654377412 3.5267169205032824 0.0000000000000000 12.0000000000000000 60
2.4495083755676084  -1.8059125728564815 3.5623805517261578 0.0000000000000000 12.0000000000000000 61
2.4890644433332958  -1.8179146514753024 3.5973168548000376 0.0000000000000000 12.0000000000000000 62
2.5286189055606854  -1.8295728640300097 3.6315326764407909 0.0000000000000000 12.0000000000000000 63
2.5681720560904129  -1.8408974182428075 3.6650356093203746 0.0000000000000000 12.0000000000000000 64
2.6077241693526099  -1.8518982673975204 3.6978339126554358 0.0000000000000000 12.0000000000000000 65
2.6472755013545419  -1.8625851115454517 3.7299364379208484 0.0000000000000000 12.0000000000000000 66
2.6868262906282241  -1.8729673992688860 3.7613525594806023 0.0000000000000000 12.0000000000000000 67
2.7263767591389039  -1.8830543299357148 3.7920921099248064 0.0000000000000000 12.0000000000000000 68
2.7659271131553789  -1.8928548563845344 3.8221653198994856 0.0000000000000000 12.0000000000000000 69
2.8054775440831778  -1.9023776879852425 3.8515827622162844 0.0000000000000000 12.0000000000000000 70
2.8450282292616391  -1.9116312940250899 3.8803553000305402 0.0000000000000000 12.0000000000000000 71
2.8845793327259779  -1.9206239073749094 3.9084940388792040 0.0000000000000000 12.0000000000000000 72
2.9241310059354313  -1.9293635283944846 3.9360102823739171 0.0000000000000000 12.0000000000000000 73
2.9636833884685823  -1.9378579290400211 3.9629154913495199 0.0000000000000000 12.0000000000000000 74
3.0032366086869655  -1.9461146571401740 3.9892212462736265 0.0000000000000000 12.0000000000000000 75
3.0427907843680515  -1.9541410408104767 4.0149392127288959 0.0000000000000000 12.0000000000000000 76
3.0823460233086997  -1.9619441929790002 4.0400811097862972 0.0000000000000000 12.0000000000000000 77
3.1219024239001487  -1.9695310159986961 4.0646586810940804 0.0000000000000000 12.0000000000000000 78
3.1614600756756110  -1.9769082063245826 4.0886836685144150 0.0000000000000000 12.0000000000000000 79
3.2010190598315016  -1.9840822592359828 4.1121677881465004 0.0000000000000000 12.0000000000000000 80
3.2405794497233198  -1.9910594735862785 4.1351227085821911 0.0000000000000000 12.0000000000000000 81
3.2801413113371920  -1.9978459565643762 4.1575600312472503 0.0000000000000000 12.0000000000000000 82
3.3197047037380232  -2.0044476284538835 4.1794912726883631 0.0000000000000000 12.0000000000000000 83
3.3592696794952293  -2.0108702273775192 4.2009278486730421 0.0000000000000000 12.0000000000000000 84
3.3988362850869538  -2.0171193140156878 4.2218810599763428 0.0000000000000000 12.0000000000000000 85
3.4384045612836687  -2.0232002762894199 4.2423620797349990 0.0000000000000000 12.0000000000000000 86
3.4779745435120355  -2.0291183339990653 4.2623819422559865 0.0000000000000000 12.0000000000000000 87
3.5175462621998617  -2.0348785434111623 4.2819515331729416 0.0000000000000000 12.0000000000000000 88
3.5571197431029709  -2.0404858017868821 4.3010815808497664 0.0000000000000000 12.0000000000000000 89
3.5966950076147781  -2.0459448518462771 4.3197826489367186 0.0000000000000000 12.0000000000000000 90
3.6362720730593407  -2.0512602861633922 4.3380651299898325 0.0000000000000000 12.0000000000000000 91
3.6758509529686121  -2.0564365514879883 4.3559392400699952 0.0000000000000000 12.0000000000000000 92
3.7154316573446242  -2.0614779529902645 4.3734150142430046 0.0000000000000000 12.0000000000000000 93
3.7550141929072782  -2.0663886584255655 4.3905023029069925 0.0000000000000000 12.0000000000000000 94
3.7945985633284143  -2.0711727022165989 4.4072107688782882 0.0000000000000000 12.0000000000000000 95
3.8341847694527944  -2.0758339894511062 4.4235498851711146 0.0000000000000000 12.0000000000000000 96
3.8737728095066286  -2.0803762997934481 4.4395289334109522 0.0000000000000000 12.0000000000000000 97
3.9133626792942087  -2.0848032913088992 4.4551570028252456 0.0000000000000000 12.0000000000000000 98
3.9529543723832634  -2.0891185041997886 4.4704429897591123 0.0000000000000000 12.0000000000000000 99
3.9925478802795382  -2.0933253644529861 4.4853955976671349 0.0000000000000000 12.0000000000000000 100
4.0321431925911586  -2.0974271873984773 4.5000233375358807 0.0000000000000000 12.0000000000000000 101
4.0717402971832728  -2.1014271811790279 4.5143345286949126 0.0000000000000000 12.0000000000000000 102
4.1113391803234558  -2.1053284501312155 4.5283372999771760 0.0000000000000000 12.0000000000000000 103
4.1509398268183428  -2.1091339980782280 4.5420395911922959 0.0000000000000000 12.0000000000000000 104
4.1905422201419453  -2.1128467315350701 4.5554491548793310 0.0000000000000000 12.0000000000000000 105
4.2301463425560613  -2.1164694628269669 4.5685735583077109 0.0000000000000000 12.0000000000000000 106
4.2697521752232062  -2.1200049131218908 4.5814201856976693 0.0000000000000000 12.0000000000000000 107
4.3093596983124511  -2.1234557153782725 4.5939962406336639 0.0000000000000000 12.0000000000000000 108
4.3489688910985249  -2.1268244172090234 4.6063087486462013 0.0000000000000000 12.0000000000000000 109
4.3885797320545734  -2.1301134836631896 4.6183645599397352 0.0000000000000000 12.0000000000000000 110
4.4281921989388850  -2.1333252999265113 4.6301703522457149 0.0000000000000000 12.0000000000000000 111
4.4678062688759175  -2.1364621739423697 4.6417326337820111 0.0000000000000000 12.0000000000000000 112
4.5074219184319553  -2.1395263389545329 4.6530577463011218 0.0000000000000000 12.0000000000000000 113
4.5470391236856713  -2.1425199559732668 4.6641518682113139 0.0000000000000000 12.0000000000000000 114
4.5866578602938848  -2.1454451161663579 4.6750210177561051 0.0000000000000000 12.0000000000000000 115
4.6262781035527816  -2.1483038431766550 4.6856710562388049 0.0000000000000000 12.0000000000000000 116
4.6658998284548758  -2.1510980953677428 4.6961076912800435 0.0000000000000000 12.0000000000000000 117
4.7055230097419098  -2.1538297679994156 4.7063364800972689 0.0000000000000000 12.0000000000000000 118
4.7451476219539792  -2.1565006953345831 4.7163628327962739 0.0000000000000000 12.0000000000000000 119
4.7847736394750653  -2.1591126526792772 4.7261920156657471 0.0000000000000000 12.0000000000000000 120
4.8244010365751997  -2.1616673583574491 4.7358291544667548 0.0000000000000000 12.0000000000000000 121
4.8640297874494607  -2.1641664756221997 4.7452792377097648 0.0000000000000000 12.0000000000000000 122
4.9036598662539896  -2.1666116145051100 4.7545471199127380 0.0000000000000000 12.0000000000000000 123
4.9432912471392045  -2.1690043336053240 4.7636375248344613 0.0000000000000000 12.0000000000000000 124
4.9829239042803763  -2.1713461418200124 4.7725550486777637 0.0000000000000000 12.0000000000000000 125
5.0225578119057523  -2.1736385000178720 4.7813041632582047 0.0000000000000000 12.0000000000000000 126
5.0621929443223470  -2.1758828226571838 4.7898892191339888 0.0000000000000000 12.0000000000000000 127
5.1018292759395623  -2.1780804793501396 4.7983144486936764 0.0000000000000000 12.0000000000000000 128
5.1414667812907906  -2.1802327963748613 4.8065839691984760 0.0000000000000000 12.0000000000000000 129
5.1811054350530874  -2.1823410581367506 4.8147017857765482 0.0000000000000000 12.0000000000000000 130
5.2207452120650828  -2.1844065085806088 4.8226717943669133 0.0000000000000000 12.0000000000000000 131
5.2603860873432149  -2.1864303525550781 4.8304977846111514 0.0000000000000000 12.0000000000000000 132
5.3000280360964123  -2.1884137571307836 4.8381834426911627 0.0000000000000000 12.0000000000000000 133
5.3396710337393136  -2.1903578528736642 4.8457323541118020 0.0000000000000000 12.0000000000000000 134
5.3793150559041489  -2.1922637350748624 4.8531480064272161 0.0000000000000000 12.0000000000000000 135
5.4189600784513372  -2.1941324649385088 4.8604337919101592 0.0000000000000000 12.0000000000000000 136
5.4586060774789207  -2.1959650707288221 4.8675930101637572 0.0000000000000000 12.0000000000000000 137
5.4982530293308995  -2.1977625488777046 4.8746288706752017 0.0000000000000000 12.0000000000000000 138
5.5379009106045416  -2.1995258650542184 4.8815444953113003 0.0000000000000000 12.0000000000000000 139
5.5775496981567612  -2.2012559551971198 4.8883429207558748 0.0000000000000000 12.0000000000000000 140
5.6171993691096045  -2.2029537265116677 4.8950271008890214 0.0000000000000000 12.0000000000000000 141
5.6568499008549313  -2.2046200584319000 4.9015999091085272 0.0000000000000000 12.0000000000000000 142
5.6965012710583407  -2.2062558035495075 4.9080641405939192 0.0000000000000000 12.0000000000000000 143
5.7361534576624011  -2.2078617885104177 4.9144225145134364 0.0000000000000000 12.0000000000000000 144
5.7758064388892336  -2.2094388148801909 4.9206776761746314 0.0000000000000000 12.0000000000000000 145
5.8154601932425036  -2.2109876599792688 4.9268321991192714 0.0000000000000000 12.0000000000000000 146
5.8551146995088725  -2.2125090776890772 4.9328885871630819 0.0000000000000000 12.0000000000000000 147
5.8947699367589346  -2.2140037992300172 4.9388492763813794 0.0000000000000000 12.0000000000000000 148
5.9344258843477000  -2.2154725339122758 4.9447166370412132 0.0000000000000000 12.0000000000000000 149
5.9740825219146565  -2.2169159698603957 4.9504929754810449 0.0000000000000000 12.0000000000000000 150
6.0137398293834359  -2.2183347747125262 4.9561805359388114 0.0000000000000000 12.0000000000000000 151
6.0533977869611357  -2.2197295962951964 4.9617815023293756 0.0000000000000000 12.0000000000000000 152
6.0930563751373104  -2.2211010632745198 4.9672979999723870 0.0000000000000000 12.0000000000000000 153
6.1327155746826811  -2.2224497857845842 4.9727320972714431 0.0000000000000000 12.0000000000000000 154
6.1723753666475671  -2.2237763560338726 4.9780858073457281 0.0000000000000000 12.0000000000000000 155
6.2120357323600910  -2.2250813488904782 4.9833610896150651 0.0000000000000000 12.0000000000000000 156
6.2516966534241547  -2.2263653224468531 4.9885598513394891 0.0000000000000000 12.0000000000000000 157
6.2913581117172352  -2.2276288185647988 4.9936839491143292 0.0000000000000000 12.0000000000000000 158
6.3310200893879962  -2.2288723634014342 4.9987351903219706 0.0000000000000000 12.0000000000000000 159
6.3706825688537556  -2.2300964679167774 5.0037153345412122 0.0000000000000000 12.0000000000000000 160
6.4103455327978072  -2.2313016283636271 5.0086260949153987 0.0000000000000000 12.0000000000000000 161
6.4500089641666332  -2.2324883267603477 5.0134691394802546 0.0000000000000000 12.0000000000000000 162
6.4896728461670055  -2.2336570313471755 5.0182460924525740 0.0000000000000000 12.0000000000000000 163
6.5293371622629968  -2.2348081970266560 5.0229585354807131 0.0000000000000000 12.0000000000000000 164
6.5690018961729288  -2.2359422657887356 5.0276080088579258 0.0000000000000000 12.0000000000000000 165
6.6086670318662302  -2.2370596671211151 5.0321960126995418 0.0000000000000000 12.0000000000000000 166
6.6483325535602651  -2.2381608184053290 5.0367240080849962 0.0000000000000000 12.0000000000000000 167
6.6879984457171107  -2.2392461252991338 5.0411934181656539 0.0000000000000000 12.0000000000000000 168
6.7276646930402961  -2.2403159821056144 5.0456056292393816 0.0000000000000000 12.0000000000000000 169
6.7673312804715176  -2.2413707721295846 5.0499619917928813 0.0000000000000000 12.0000000000000000 170
6.8069981931873551  -2.2424108680216359 5.0542638215125928 0.0000000000000000 12.0000000000000000 171
6.8466654165959451  -2.2434366321103889 5.0585124002651556 0.0000000000000000 12.0000000000000000 172
6.8863329363336820  -2.2444484167232486 5.0627089770482820 0.0000000000000000 12.0000000000000000 173
6.9260007382619104  -2.2454465644961936 5.0668547689129086 0.0000000000000000 12.0000000000000000 174
6.9656688084636249  -2.2464314086729313 5.0709509618575233 0.0000000000000000 12.0000000000000000 175
7.0053371332401833  -2.2474032733938079 5.0749987116953639 0.0000000000000000 12.0000000000000000 176
7.0450056991080512  -2.2483624739748582 5.0789991448954623 0.0000000000000000 12.0000000000000000 177
7.0846744927955472  -2.2493093171773531 5.0829533593982239 0.0000000000000000 12.0000000000000000 178
7.1243435012396334  -2.2502441014681667 5.0868624254063066 0.0000000000000000 12.0000000000000000 179
7.1640127115827363  -2.2511671172712995 5.0907273861515900 0.0000000000000000 12.0000000000000000 180
7.2036821111695790  -2.2520786472109156 5.0945492586389900 0.0000000000000000 12.0000000000000000 181
7.2433516875440711  -2.2529789663461353 5.0983290343677083 0.0000000000000000 12.0000000000000000 182
7.2830214284462356  -2.2538683423979298 5.1020676800307747 0.0000000000000000 12.0000000000000000 183
7.3226913218091561  -2.2547470359683710 5.1057661381933901 0.0000000000000000 12.0000000000000000 184
7.3623613557559890  -2.2556153007525497 5.1094253279508752 0.0000000000000000 12.0000000000000000 185
7.4020315185970054  -2.2564733837433839 5.1130461455667824 0.0000000000000000 12.0000000000000000 186
7.4417017988266752  -2.2573215254295915 5.1166294650917106 0.0000000000000000 12.0000000000000000 187
7.4813721851208133  -2.2581599599870845 5.1201761389636555 0.0000000000000000 12.0000000000000000 188
7.5210426663337566  -2.2589889154639877 5.1236869985902000 0.0000000000000000 12.0000000000000000 189
7.5607132314955878  -2.2598086139595690 5.1271628549133377 0.0000000000000000 12.0000000000000000 190
7.6003838698094190  -2.2606192717972187 5.1306044989573456 0.0000000000000000 12.0000000000000000 191
7.6400545706487222  -2.2614210996917428 5.1340127023602395 0.0000000000000000 12.0000000000000000 192
7.6797253235546892  -2.2622143029112145 5.1373882178894874 0.0000000000000000 12.0000000000000000 193
7.7193961182336741  -2.2629990814334380 5.1407317799422145 0.0000000000000000 12.0000000000000000 194
7.7590669445546432  -2.2637756300974003 5.1440441050306553 0.0000000000000000 12.0000000000000000 195
