 # inv_tmp, energy, phys_var, phys_doublon, phys_num, step_i
0.0000000000000000  -0.0059589122770338 1.1200679807236207 0.0000000000000000 12.0000000000000000 0
0.0416210684005785  -0.0525867512858673 1.1202816646541112 0.0000000000000000 12.0000000000000000 1
0.0831617218194057  -0.0990522140272130 1.1236187414094105 0.0000000000000000 12.0000000000000000 2
0.1246227396890827  -0.1453065064145458 1.1300505073092113 0.0000000000000000 12.0000000000000000 3
0.1660050592118233  -0.1913023493576620 1.1395359966660095 0.0000000000000000 12.0000000000000000 4
0.2073097665365240  -0.2369941709340246 1.1520225035398401 0.0000000000000000 12.0000000000000000 5
0.2485380871839031  -0.2823382764699810 1.1674462004417154 0.0000000000000000 12.0000000000000000 6
0.2896913758697005  -0.3272929957605158 1.1857328419792939 0.0000000000000000 12.0000000000000000 7
0.3307711058748676  -0.3718188070903580 1.2067985405776336 0.0000000000000000 12.0000000000000000 8
0.3717788581075443  -0.4158784381255781 1.2305506008858969 0.0000000000000000 12.0000000000000000 9
0.4127163099947891  -0.4594369441142693 1.2568883992865618 0.0000000000000000 12.0000000000000000 10
0.4535852243330081  -0.5024617641607461 1.2857042950360493 0.0000000000000000 12.0000000000000000 11
0.4943874382152453  -0.5449227566152930 1.3168845599552794 0.0000000000000000 12.0000000000000000 12
0.5351248521414871  -0.5867922148485669 1.3503103142203221 0.0000000000000000 12.0000000000000000 13
0.5757994194053225  -0.6280448648558976 1.3858584566373386 0.0000000000000000 12.0000000000000000 14
0.6164131358371401  -0.6686578462633195 1.4234025787809066 0.0000000000000000 12.0000000000000000 15
0.6569680299709091  -0.7086106783871565 1.4628138534888024 0.0000000000000000 12.0000000000000000 16
0.6974661536888084  -0.7478852130363562 1.5039618893989062 0.0000000000000000 12.0000000000000000 17
0.7379095733858004  -0.7864655757463132 1.5467155444471865 0.0000000000000000 12.0000000000000000 18
0.7783003616849230  -0.8243380971001367 1.5909436924857554 0.0000000000000000 12.0000000000000000 19
0.8186405897236931  -0.8614912357335835 1.6365159383967232 0.0000000000000000 12.0000000000000000 20
0.8589323200227374  -0.8979154945388315 1.6833032782459831 0.0000000000000000 12.0000000000000000 21
0.8991775999395735  -0.9336033314852177 1.7311787021210978 0.0000000000000000 12.0000000000000000 22
0.9393784557034052  -0.9685490663667338 1.7800177383131925 0.0000000000000000 12.0000000000000000 23
0.9795368870208202  -1.0027487846710872 1.8296989384238396 0.0000000000000000 12.0000000000000000 24
1.0196548622373414  -1.0362002396470640 1.8801043037970011 0.0000000000000000 12.0000000000000000 25
1.0597343140357878  -1.0689027535291515 1.9311196543904523 0.0000000000000000 12.0000000000000000 26
1.0997771356493189  -1.1008571187633247 1.9826349418102596 0.0000000000000000 12.0000000000000000 27
1.1397851775646741  -1.1320654999678026 2.0345445087389153 0.0000000000000000 12.0000000000000000 28
1.1797602446895104  -1.1625313372586672 2.0867472973967836 0.0000000000000000 12.0000000000000000 29
1.2197040939566621  -1.1922592514737387 2.1391470099939625 0.0000000000000000 12.0000000000000000 30
1.2596184323376109  -1.2212549517395219 2.1916522243629304 0.0000000000000000 12.0000000000000000 31
1.2995049152373110  -1.2495251457456373 2.2441764681190852 0.0000000000000000 12.0000000000000000 32
1.3393651452427291  -1.2770774530190019 2.2966382547852398 0.0000000000000000 12.0000000000000000 33
1.3792006711979374  -1.3039203214257360 2.3489610853452580 0.0000000000000000 12.0000000000000000 34
1.4190129875793027  -1.3300629470722132 2.4010734186702063 0.0000000000000000 12.0000000000000000 35
1.4588035341451713  -1.3555151977270958 2.4529086141948970 0.0000000000000000 12.0000000000000000 36
1.4985736958354481  -1.3802875398432330 2.5044048501215594 0.0000000000000000 12.0000000000000000 37
1.5383248028975345  -1.4043909692212468 2.5555050202972773 0.0000000000000000 12.0000000000000000 38
1.5780581312162276  -1.4278369453250126 2.6061566127590154 0.0000000000000000 12.0000000000000000 39
1.6177749028263528  -1.4506373292323043 2.6563115727705306 0.0000000000000000 12.0000000000000000 40
1.6574762865880757  -1.4728043251812990 2.7059261529938801 0.0000000000000000 12.0000000000000000 41
1.6971633990060395  -1.4943504256546105 2.7549607532492919 0.0000000000000000 12.0000000000000000 42
1.7368373051746242  -1.5152883599269731 2.8033797521246173 0.0000000000000000 12.0000000000000000 43
1.7764990198328010  -1.5356310459897187 2.8511513325025293 0.0000000000000000 12.0000000000000000 44
1.8161495085131598  -1.5553915457549272 2.8982473028830267 0.0000000000000000 12.0000000000000000 45
1.8557896887707928  -1.5745830234337814 2.9446429161926613 0.0000000000000000 12.0000000000000000 46
1.8954204314787741  -1.5932187069772339 2.9903166875920801 0.0000000000000000 12.0000000000000000 47
1.9350425621779899  -1.6113118524623327 3.0352502126215084 0.0000000000000000 12.0000000000000000 48
1.9746568624700587  -1.6288757113039654 3.0794279868605035 0.0000000000000000 12.0000000000000000 49
2.0142640714430153  -1.6459235001695580 3.1228372281246117 0.0000000000000000 12.0000000000000000 50
2.0538648871203273  -1.6624683734730250 3.1654677020779909 0.0000000000000000 12.0000000000000000 51
2.0934599679246726  -1.6785233983237804 3.2073115520075262 0.0000000000000000 12.0000000000000000 52
2.1330499341487008  -1.6941015318071164 3.2483631333812748 0.0000000000000000 12.0000000000000000 53
2.1726353694257821  -1.7092156004732266 3.2886188537011565 0.0000000000000000 12.0000000000000000 54
2.2122168221944709  -1.7238782819137930 3.3280770180575114 0.0000000000000000 12.0000000000000000 55
2.2517948071510743  -1.7381020883071385 3.3667376807001705 0.0000000000000000 12.0000000000000000 56
2.2913698066853789  -1.7518993518155372 3.4046025028576237 0.0000000000000000 12.0000000000000000 57
2.3309422722951818  -1.7652822117210278 3.4416746169612273 0.0000000000000000 12.0000000000000000 58
2.3705126259758083  -1.7782626031894488 3.4779584973657012 0.0000000000000000 12.0000000000000000 59
2.4100812615813600  -1.7908522475556397 3.5134598375990951 0.0000000000000000 12.0000000000000000 60
2.4496485461548771  -1.8030626440265767 3.5481854341249481 0.0000000000000000 12.0000000000000000 61
2.4892148212250738  -1.8149050627028986 3.5821430765555484 0.0000000000000000 12.0000000000000000 62
2.5287804040676911  -1.8263905388232355 3.6153414442179930 0.0000000000000000 12.0000000000000000 63
2.5683455889299216  -1.8375298681397765 3.6477900089430033 0.0000000000000000 12.0000000000000000 64
2.6079106482166510  -1.8483336033375939 3.6794989439203079 0.0000000000000000 12.0000000000000000 65
2.6474758336376318  -1.8588120514142756 3.7104790384426742 0.0000000000000000 12.0000000000000000 66
2.6870413773149404  -1.8689752719406032 3.7407416183435220 0.0000000000000000 12.0000000000000000 67
2.7266074928503534  -1.8788330761270253 3.7702984719196553 0.0000000000000000 12.0000000000000000 68
2.7661743763524829  -1.8883950266247369 3.7991617811205116 0.0000000000000000 12.0000000000000000 69
2.8057422074237408  -1.8976704379941263 3.8273440577784941 0.0000000000000000 12.0000000000000000 70
2.8453111501073582  -1.9066683777772804 3.8548580846504903 0.0000000000000000 12.0000000000000000 71
2.8848813537948521  -1.9153976681150007 3.8817168610387887 0.0000000000000000 12.0000000000000000 72
2.9244529540944835  -1.9238668878524936 3.9079335527594146 0.0000000000000000 12.0000000000000000 73
2.9640260736613495  -1.9320843750814924 3.9335214462277621 0.0000000000000000 12.0000000000000000 74
3.0036008229898634  -1.9400582300700162 3.9584939064344415 0.0000000000000000 12.0000000000000000 75
3.0431773011694774  -1.9477963185343063 3.9828643385886844 0.0000000000000000 12.0000000000000000 76
3.0827555966045486  -1.9553062752106629 4.0066461532119186 0.0000000000000000 12.0000000000000000 77
3.1223357876993294  -1.9625955076880075 4.0298527344705528 0.0000000000000000 12.0000000000000000 78
3.1619179435091054  -1.9696712004648469 4.0524974115435262 0.0000000000000000 12.0000000000000000 79
3.2015021243585395  -1.9765403191971866 4.0745934328278848 0.0000000000000000 12.0000000000000000 80
3.2410883824282970  -1.9832096151064937 4.0961539427931450 0.0000000000000000 12.0000000000000000 81
3.2806767623110735  -1.9896856295193639 4.1171919613032228 0.0000000000000000 12.0000000000000000 82
3.3202673015381303  -1.9959746985128843 4.1377203652329415 0.0000000000000000 12.0000000000000000 83
3.3598600310774489  -2.0020829576419383 4.1577518722142894 0.0000000000000000 12.0000000000000000 84
3.3994549758046393  -2.0080163467267482 4.1772990263558256 0.0000000000000000 12.0000000000000000 85
3.4390521549476953  -2.0137806146810058 4.1963741857867856 0.0000000000000000 12.0000000000000000 86
3.4786515825066964  -2.0193813243626439 4.2149895118854559 0.0000000000000000 12.0000000000000000 87
3.5182532676495413  -2.0248238574311803 4.2331569600593424 0.0000000000000000 12.0000000000000000 88
3.5578572150847765  -2.0301134191970709 4.2508882719522543 0.0000000000000000 12.0000000000000000 89
3.5974634254125442  -2.0352550434500229 4.2681949689608825 0.0000000000000000 12.0000000000000000 90
3.6370718954546830  -2.0402535972546509 4.2850883469507535 0.0000000000000000 12.0000000000000000 91
3.6766826185649548  -2.0451137857031050 4.3015794720682941 0.0000000000000000 12.0000000000000000 92
3.7162955849203625  -2.0498401566154856 4.3176791775524208 0.0000000000000000 12.0000000000000000 93
3.7559107817944923  -2.0544371051800407 4.3333980614554868 0.0000000000000000 12.0000000000000000 94
3.7955281938137686  -2.0589088785260494 4.3487464851895385 0.0000000000000000 12.0000000000000000 95
3.8351478031975068  -2.0632595802233142 4.3637345728194887 0.0000000000000000 12.0000000000000000 96
3.8747695899825878  -2.0674931747030136 4.3783722110305394 0.0000000000000000 12.0000000000000000 97
3.9143935322335626  -2.0716134915954347 4.3926690497022083 0.0000000000000000 12.0000000000000000 98
3.9540196062389770  -2.0756242299808889 4.4066345030264413 0.0000000000000000 12.0000000000000000 99
3.9936477866946283  -2.0795289625506728 4.4202777511117048 0.0000000000000000 12.0000000000000000 100
4.0332780468745035  -2.0833311396756482 4.4336077420196789 0.0000000000000000 12.0000000000000000 101
4.0729103587900575  -2.0870340933804550 4.4466331941850203 0.0000000000000000 12.0000000000000000 102
4.1125446933384806  -2.0906410412219469 4.4593625991726435 0.0000000000000000 12.0000000000000000 103
4.1521810204406027  -2.0941550900708021 4.4718042247306737 0.0000000000000000 12.0000000000000000 104
4.1918193091690013  -2.0975792397957687 4.4839661181005575 0.0000000000000000 12.0000000000000000 105
4.2314595278668943  -2.1009163868502299 4.4958561095489467 0.0000000000000000 12.0000000000000000 106
4.2711016442583540  -2.1041693277612317 4.5074818160891867 0.0000000000000000 12.0000000000000000 107
4.3107456255503598  -2.1073407625213174 4.5188506453626820 0.0000000000000000 12.0000000000000000 108
4.3503914385271649  -2.1104332978837523 4.5299697996532160 0.0000000000000000 12.0000000000000000 109
4.3900390496374513  -2.1134494505620673 4.5408462800097134 0.0000000000000000 12.0000000000000000 110
4.4296884250747217  -2.1163916503349083 4.5514868904549672 0.0000000000000000 12.0000000000000000 111
4.4693395308513120  -2.1192622430573920 4.5618982422602095 0.0000000000000000 12.0000000000000000 112
4.5089923328664581  -2.1220634935804337 4.5720867582670159 0.0000000000000000 12.0000000000000000 113
4.5486467969687743  -2.1247975885794324 4.5820586772400809 0.0000000000000000 12.0000000000000000 114
4.5883028890134883  -2.1274666392940222 4.5918200582358546 0.0000000000000000 12.0000000000000000 115
4.6279605749147832  -2.1300726841805306 4.6013767849736444 0.0000000000000000 12.0000000000000000 116
4.6676198206935640  -2.1326176914789539 4.6107345701971303 0.0000000000000000 12.0000000000000000 117
4.7072805925209318  -2.1351035616962935 4.6198989600155729 0.0000000000000000 12.0000000000000000 118
4.7469428567576601  -2.1375321300081787 4.6288753382151926 0.0000000000000000 12.0000000000000000 119
4.7866065799899449  -2.1399051685806572 4.6376689305321328 0.0000000000000000 12.0000000000000000 120
4.8262717290616628  -2.1422243888141632 4.6462848088797131 0.0000000000000000 12.0000000000000000 121
4.8659382711033938  -2.1444914435116482 4.6547278955232896 0.0000000000000000 12.0000000000000000 122
4.9056061735584162  -2.1467079289728512 4.6630029671970492 0.0000000000000000 12.0000000000000000 123
4.9452754042058906  -2.1488753870167350 4.6711146591578485 0.0000000000000000 12.0000000000000000 124
4.9849459311814321  -2.1509953069340542 4.6790674691717635 0.0000000000000000 12.0000000000000000 125
5.0246177229952576  -2.1530691273720755 4.6868657614298144 0.0000000000000000 12.0000000000000000 126
5.0642907485480722  -2.1550982381534070 4.6945137703898201 0.0000000000000000 12.0000000000000000 127
5.1039649771448774  -2.1570839820308931 4.7020156045418959 0.0000000000000000 12.0000000000000000 128
5.1436403785068361  -2.1590276563805264 4.7093752500955821 0.0000000000000000 12.0000000000000000 129
5.1833169227813567  -2.1609305148342277 4.7165965745869727 0.0000000000000000 12.0000000000000000 130
5.2229945805505160  -2.1627937688544532 4.7236833304047714 0.0000000000000000 12.0000000000000000 131
5.2626733228379647  -2.1646185892523917 4.7306391582343101 0.0000000000000000 12.0000000000000000 132
5.3023531211144190  -2.1664061076516195 4.7374675904191186 0.0000000000000000 12.0000000000000000 133
5.3420339473018625  -2.1681574178989562 4.7441720542397317 0.0000000000000000 12.0000000000000000 134
5.3817157737765609  -2.1698735774242555 4.7507558751098369 0.0000000000000000 12.0000000000000000 135
5.4213985733709729  -2.1715556085508489 4.7572222796899704 0.0000000000000000 12.0000000000000000 136
5.4610823193746780  -2.1732044997582847 4.7635743989192125 0.0000000000000000 12.0000000000000000 137
5.5007669855343790  -2.1748212068989590 4.7698152709655517 0.0000000000000000 12.0000000000000000 138
5.5404525460530687  -2.1764066543702860 4.7759478440957333 0.0000000000000000 12.0000000000000000 139
5.5801389755884472  -2.1779617362438293 4.7819749794654216 0.0000000000000000 12.0000000000000000 140
5.6198262492506430  -2.1794873173529767 4.7878994538308453 0.0000000000000000 12.0000000000000000 141
5.6595143425993024  -2.1809842343405865 4.7937239621830514 0.0000000000000000 12.0000000000000000 142
5.6992032316401273  -2.1824532966679939 4.7994511203060064 0.0000000000000000 12.0000000000000000 143
5.7388928928209006  -2.1838952875867697 4.8050834672599079 0.0000000000000000 12.0000000000000000 144
5.7785833030270517  -2.1853109650745179 4.8106234677909914 0.0000000000000000 12.0000000000000000 145
5.8182744395768156  -2.1867010627360890 4.8160735146695064 0.0000000000000000 12.0000000000000000 146
5.8579662802160408  -2.1880662906713257 4.8214359309570591 0.0000000000000000 12.0000000000000000 147
5.8976588031126633  -2.1894073363106834 4.8267129722051720 0.0000000000000000 12.0000000000000000 148
5.9373519868509099  -2.1907248652197793 4.8319068285862592 0.0000000000000000 12.0000000000000000 149
5.9770458104252517  -2.1920195218740992 4.8370196269589742 0.0000000000000000 12.0000000000000000 150
6.0167402532341532  -2.1932919304048806 4.8420534328691636 0.0000000000000000 12.0000000000000000 151
6.0564352950736344  -2.1945426953172715 4.8470102524882659 0.0000000000000000 12.0000000000000000 152
6.0961309161306874  -2.1957724021817975 4.8518920344906560 0.0000000000000000 12.0000000000000000 153
6.1358270969765645  -2.1969816183000641 4.8567006718714616 0.0000000000000000 12.0000000000000000 154
6.1755238185599604  -2.1981708933457416 4.8614380037066409 0.0000000000000000 12.0000000000000000 155
6.2152210622001371  -2.1993407599816854 4.8661058168566438 0.0000000000000000 12.0000000000000000 156
6.2549188095799604  -2.2004917344540575 4.8707058476153415 0.0000000000000000 12.0000000000000000 157
6.2946170427389214  -2.2016243171644474 4.8752397833058607 0.0000000000000000 12.0000000000000000 158
6.3343157440661306  -2.2027389932206187 4.8797092638246191 0.0000000000000000 12.0000000000000000 159
6.3740148962932981  -2.2038362329668679 4.8841158831352391 0.0000000000000000 12.0000000000000000 160
6.4137144824877304  -2.2049164924946387 4.8884611907137945 0.0000000000000000 12.0000000000000000 161
6.4534144860453537  -2.2059802141341920 4.8927466929467052 0.0000000000000000 12.0000000000000000 162
6.4931148906837537  -2.2070278269280355 4.8969738544829005 0.0000000000000000 12.0000000000000000 163
6.5328156804352764  -2.2080597470868177 4.9011440995415025 0.0000000000000000 12.0000000000000000 164
6.5725168396401816  -2.2090763784282883 4.9052588131764452 0.0000000000000000 12.0000000000000000 165
6.6122183529398484  -2.2100781128000717 4.9093193424993791 0.0000000000000000 12.0000000000000000 166
6.6519202052700601  -2.2110653304867771 4.9133269978621348 0.0000000000000000 12.0000000000000000 167
6.6916223818543736  -2.2120384006020588 4.9172830540000252 0.0000000000000000 12.0000000000000000 168
6.7313248681975564  -2.2129976814662431 4.9211887511372927 0.0000000000000000 12.0000000000000000 169
6.7710276500791302  -2.2139435209700404 4.9250452960558340 0.0000000000000000 12.0000000000000000 170
6.8107307135470023  -2.2148762569248195 4.9288538631283902 0.0000000000000000 12.0000000000000000 171
6.8504340449111885  -2.2157962174000860 4.9326155953174613 0.0000000000000000 12.0000000000000000 172
6.8901376307376561  -2.2167037210485070 4.9363316051408850 0.0000000000000000 12.0000000000000000 173
6.9298414578422642  -2.2175990774190555 4.9400029756053705 0.0000000000000000 12.0000000000000000 174
6.9695455132848068  -2.2184825872586966 4.9436307611088726 0.0000000000000000 12.0000000000000000 175
7.0092497843631749  -2.2193545428030377 4.9472159883129398 0.0000000000000000 12.0000000000000000 176
7.0489542586076341  -2.2202152280563836 4.9507596569860137 0.0000000000000000 12.0000000000000000 177
7.0886589237752089  -2.2210649190615950 4.9542627408186313 0.0000000000000000 12.0000000000000000 178
7.1283637678441796  -2.2219038841601342 4.9577261882114723 0.0000000000000000 12.0000000000000000 179
7.1680687790087187  -2.2227323842426694 4.9611509230371844 0.0000000000000000 12.0000000000000000 180
7.2077739456736074  -2.2235506729906258 4.9645378453768885 0.0000000000000000 12.0000000000000000 181
7.2474792564491004  -2.2243589971089710 4.9678878322321234 0.0000000000000000 12.0000000000000000 182
7.2871847001458914  -2.2251575965506372 4.9712017382132281 0.0000000000000000 12.0000000000000000 183
7.3268902657702029  -2.2259467047328414 4.9744803962047692 0.0000000000000000 12.0000000000000000 184
7.3665959425189804  -2.2267265487456331 4.9777246180089705 0.0000000000000000 12.0000000000000000 185
7.4063017197752261  -2.2274973495530039 4.9809351949678060 0.0000000000000000 12.0000000000000000 186
7.4460075871034110  -2.2282593221867302 4.9841128985644403 0.0000000000000000 12.0000000000000000 187
7.4857135342450336  -2.2290126759333928 4.9872584810049059 0.0000000000000000 12.0000000000000000 188
7.5254195511142816  -2.2297576145146465 4.9903726757804430 0.0000000000000000 12.0000000000000000 189
7.5651256277937877  -2.2304943362611582 4.9934561982114039 0.0000000000000000 12.0000000000000000 190
7.6048317545305197  -2.2312230342803367 4.9965097459731957 0.0000000000000000 12.0000000000000000 191
7.6445379217317653  -2.2319438966181537 4.9995339996049584 0.0000000000000000 12.0000000000000000 192
7.6842441199612255  -2.2326571064152638 5.0025296230015623 0.0000000000000000 12.0000000000000000 193
7.7239503399352172  -2.2333628420576166 5.0054972638894544 0.0000000000000000 12.0000000000000000 194
7.7636565725189683  -2.2340612773217985 5.0084375542870010 0.0000000000000000 12.0000000000000000 195
