 # inv_tmp, energy, phys_var, phys_doublon, phys_num, step_i
0.0000000000000000  0.0003004774509268 1.1496782637581036 0.0000000000000000 12.0000000000000000 0
0.0416254212042005  -0.0475618538167393 1.1487936899150202 0.0000000000000000 12.0000000000000000 1
0.0831683277377605  -0.0952317883854750 1.1511328817906847 0.0000000000000000 12.0000000000000000 2
0.1246296025051052  -0.1426553515182747 1.1566622429026252 0.0000000000000000 12.0000000000000000 3
0.1660103021337130  -0.1897803761383308 1.1653351484946655 0.0000000000000000 12.0000000000000000 4
0.2073116464631883  -0.2365567521343694 1.1770925786179531 0.0000000000000000 12.0000000000000000 5
0.2485350070491162  -0.2829366473453164 1.1918638589881125 0.0000000000000000 12.0000000000000000 6
0.2896818948780199  -0.3288746985556855 1.2095674944445847 0.0000000000000000 12.0000000000000000 7
0.3307539474922260  -0.3743281714757563 1.2301120788357829 0.0000000000000000 12.0000000000000000 8
0.3717529157211120  -0.4192570893070046 1.2533972646098537 0.0000000000000000 12.0000000000000000 9
0.4126806502084950  -0.4636243300856846 1.2793147752898069 0.0000000000000000 12.0000000000000000 10
0.4535390879153997  -0.5073956935410554 1.3077494443227162 0.0000000000000000 12.0000000000000000 11
0.4943302387637410  -0.5505399386876297 1.3385802644723861 0.0000000000000000 12.0000000000000000 12
0.5350561725702855  -0.5930287937844768 1.3716814329206595 0.0000000000000000 12.0000000000000000 13
0.5757190064023088  -0.6348369406338188 1.4069233784956847 0.0000000000000000 12.0000000000000000 14
0.6163208924673363  -0.6759419754538516 1.4441737588942483 0.0000000000000000 12.0000000000000000 15
0.6568640066298960  -0.7163243487477400 1.4832984173483568 0.0000000000000000 12.0000000000000000 16
0.6973505376288789  -0.7559672867053412 1.5241622898440943 0.0000000000000000 12.0000000000000000 17
0.7377826770504401  -0.7948566967217945 1.5666302556795118 0.0000000000000000 12.0000000000000000 18
0.7781626100937397  -0.8329810596045162 1.6105679257994343 0.0000000000000000 12.0000000000000000 19
0.8184925071505890  -0.8703313109751790 1.6558423649276548 0.0000000000000000 12.0000000000000000 20
0.8587745162054377  -0.9069007142646524 1.7023227449982896 0.0000000000000000 12.0000000000000000 21
0.8990107560492635  -0.9426847275550385 1.7498809287425026 0.0000000000000000 12.0000000000000000 22
0.9392033102898870  -0.9776808663525819 1.7983919834971385 0.0000000000000000 12.0000000000000000 23
0.9793542221320231  -1.0118885641862310 1.8477346263574812 0.0000000000000000 12.0000000000000000 24
1.0194654898929598  -1.0453090327263732 1.8977916026932413 0.0000000000000000 12.0000000000000000 25
1.0595390632140052  -1.0779451229133730 1.9484500007864212 0.0000000000000000 12.0000000000000000 26
1.0995768399236696  -1.1098011883813144 1.9996015059372199 0.0000000000000000 12.0000000000000000 27
1.1395806635057657  -1.1408829522638420 2.0511425978293469 0.0000000000000000 12.0000000000000000 28
1.1795523211240826  -1.1711973782795051 2.1029746952602375 0.0000000000000000 12.0000000000000000 29
1.2194935421548156  -1.2007525468166449 2.1550042525382236 0.0000000000000000 12.0000000000000000 30
1.2594059971783804  -1.2295575365744535 2.2071428119422296 0.0000000000000000 12.0000000000000000 31
1.2992912973834165  -1.2576223121686998 2.2593070166441320 0.0000000000000000 12.0000000000000000 32
1.3391509943375544  -1.2849576179784004 2.3114185884243725 0.0000000000000000 12.0000000000000000 33
1.3789865800817296  -1.3115748783935148 2.3634042743811752 0.0000000000000000 12.0000000000000000 34
1.4187994875073815  -1.3374861045231421 2.4151957666554709 0.0000000000000000 12.0000000000000000 35
1.4585910909786197  -1.3627038073382733 2.4667295989793963 0.0000000000000000 12.0000000000000000 36
1.4983627071643222  -1.3872409171517037 2.5179470236157844 0.0000000000000000 12.0000000000000000 37
1.5381155960480615  -1.4111107092793704 2.5687938719990582 0.0000000000000000 12.0000000000000000 38
1.5778509620866505  -1.4343267356809402 2.6192204021216008 0.0000000000000000 12.0000000000000000 39
1.6175699554909291  -1.4569027623415336 2.6691811354409136 0.0000000000000000 12.0000000000000000 40
1.6572736736051514  -1.4788527121300650 2.7186346858166655 0.0000000000000000 12.0000000000000000 41
1.6969631623638981  -1.5001906128513651 2.7675435827276553 0.0000000000000000 12.0000000000000000 42
1.7366394178078763  -1.5209305501979260 2.8158740907696620 0.0000000000000000 12.0000000000000000 43
1.7763033876422143  -1.5410866253018067 2.8635960271988634 0.0000000000000000 12.0000000000000000 44
1.8159559728229409  -1.5606729165868229 2.9106825790636410 0.0000000000000000 12.0000000000000000 45
1.8555980291592238  -1.5797034456247174 2.9571101212608091 0.0000000000000000 12.0000000000000000 46
1.8952303689206753  -1.5981921467059172 3.0028580366619906 0.0000000000000000 12.0000000000000000 47
1.9348537624405691  -1.6161528398447853 3.0479085392810426 0.0000000000000000 12.0000000000000000 48
1.9744689397072033  -1.6335992069505743 3.0922465012950995 0.0000000000000000 12.0000000000000000 49
2.0140765919368890  -1.6505447709078538 3.1358592845883981 0.0000000000000000 12.0000000000000000 50
2.0536773731231075  -1.6670028773237271 3.1787365773598077 0.0000000000000000 12.0000000000000000 51
2.0932719015573795  -1.6829866787132304 3.2208702362205224 0.0000000000000000 12.0000000000000000 52
2.1328607613181934  -1.6985091209084708 3.2622541341070477 0.0000000000000000 12.0000000000000000 53
2.1724445037250906  -1.7135829314914077 3.3028840142455551 0.0000000000000000 12.0000000000000000 54
2.2120236487556526  -1.7282206100640887 3.3427573503258219 0.0000000000000000 12.0000000000000000 55
2.2515986864236419  -1.7424344201837967 3.3818732129753060 0.0000000000000000 12.0000000000000000 56
2.2911700781170787  -1.7562363828036127 3.4202321425657045 0.0000000000000000 12.0000000000000000 57
2.3307382578953746  -1.7696382710714329 3.4578360283344471 0.0000000000000000 12.0000000000000000 58
2.3703036337450341  -1.7826516063523306 3.4946879937615760 0.0000000000000000 12.0000000000000000 59
2.4098665887937014  -1.7952876553502481 3.5307922881067357 0.0000000000000000 12.0000000000000000 60
2.4494274824825690  -1.8075574282155420 3.5661541839818915 0.0000000000000000 12.0000000000000000 61
2.4889866516973917  -1.8194716775346453 3.6007798808113307 0.0000000000000000 12.0000000000000000 62
2.5285444118584781  -1.8310408981071069 3.6346764140110333 0.0000000000000000 12.0000000000000000 63
2.5681010579702206  -1.8422753274237673 3.6678515697046565 0.0000000000000000 12.0000000000000000 64
2.6076568656307932  -1.8531849467675021 3.7003138047815667 0.0000000000000000 12.0000000000000000 65
2.6472120920027664  -1.8637794828651177 3.7320721720942474 0.0000000000000000 12.0000000000000000 66
2.6867669767454498  -1.8740684100255125 3.7631362505864634 0.0000000000000000 12.0000000000000000 67
2.7263217429098376  -1.8840609527052758 3.7935160801405972 0.0000000000000000 12.0000000000000000 68
2.7658765977970674  -1.8937660884482772 3.8232221009309142 0.0000000000000000 12.0000000000000000 69
2.8054317337813526  -1.9031925511509198 3.8522650970702070 0.0000000000000000 12.0000000000000000 70
2.8449873290983496  -1.9123488346092223 3.8806561443388339 0.0000000000000000 12.0000000000000000 71
2.8845435485999560  -1.9212431963081105 3.9084065617883796 0.0000000000000000 12.0000000000000000 72
2.9241005444765422  -1.9298836614170454 3.9355278670160514 0.0000000000000000 12.0000000000000000 73
2.9636584569476123  -1.9382780269596271 3.9620317349107443 0.0000000000000000 12.0000000000000000 74
3.0032174149218971  -1.9464338661278568 3.9879299596772593 0.0000000000000000 12.0000000000000000 75
3.0427775366278871  -1.9543585327147250 4.0132344199509360 0.0000000000000000 12.0000000000000000 76
3.0823389302157782  -1.9620591656412283 4.0379570468215400 0.0000000000000000 12.0000000000000000 77
3.1219016943318203  -1.9695426935564120 4.0621097945916400 0.0000000000000000 12.0000000000000000 78
3.1614659186660350  -1.9768158394911102 4.0857046141017426 0.0000000000000000 12.0000000000000000 79
3.2010316844742452  -1.9838851255479752 4.1087534284612666 0.0000000000000000 12.0000000000000000 80
3.2405990650753620  -1.9907568776122599 4.1312681110314884 0.0000000000000000 12.0000000000000000 81
3.2801681263248352  -1.9974372300692975 4.1532604655135019 0.0000000000000000 12.0000000000000000 82
3.3197389270651820  -2.0039321305161923 4.1747422080013594 0.0000000000000000 12.0000000000000000 83
3.3593115195544478  -2.0102473444565168 4.1957249508671461 0.0000000000000000 12.0000000000000000 84
3.3988859498734914  -2.0163884599680340 4.2162201883516905 0.0000000000000000 12.0000000000000000 85
3.4384622583129083  -2.0223608923345595 4.2362392837410701 0.0000000000000000 12.0000000000000000 86
3.4780404797404150  -2.0281698886341180 4.2557934580154715 0.0000000000000000 12.0000000000000000 87
3.5176206439495004  -2.0338205322764442 4.2748937798632802 0.0000000000000000 12.0000000000000000 88
3.5572027759901097  -2.0393177474836479 4.2935511569590830 0.0000000000000000 12.0000000000000000 89
3.5967868964821164  -2.0446663037088229 4.3117763284104242 0.0000000000000000 12.0000000000000000 90
3.6363730219123158  -2.0498708199877824 4.3295798582831875 0.0000000000000000 12.0000000000000000 91
3.6759611649156470  -2.0549357692200445 4.3469721301215207 0.0000000000000000 12.0000000000000000 92
3.7155513345413347  -2.0598654823755096 4.3639633423826698 0.0000000000000000 12.0000000000000000 93
3.7551435365046095  -2.0646641526239904 4.3805635047125975 0.0000000000000000 12.0000000000000000 94
3.7947377734246657  -2.0693358393850954 4.3967824349924518 0.0000000000000000 12.0000000000000000 95
3.8343340450494603  -2.0738844722965037 4.4126297570908042 0.0000000000000000 12.0000000000000000 96
3.8739323484679744  -2.0783138550990157 4.4281148992605655 0.0000000000000000 12.0000000000000000 97
3.9135326783105038  -2.0826276694371173 4.4432470931236132 0.0000000000000000 12.0000000000000000 98
3.9531350269375536  -2.0868294785741792 4.4580353731900813 0.0000000000000000 12.0000000000000000 99
3.9927393846178583  -2.0909227310216316 4.4724885768626388 0.0000000000000000 12.0000000000000000 100
4.0323457396960682  -2.0949107640818054 4.4866153448798247 0.0000000000000000 12.0000000000000000 101
4.0719540787505926  -2.0987968073043266 4.5004241221554491 0.0000000000000000 12.0000000000000000 102
4.1115643867420761  -2.1025839858561559 4.5139231589743360 0.0000000000000000 12.0000000000000000 103
4.1511766471529876  -2.1062753238056446 4.5271205125074738 0.0000000000000000 12.0000000000000000 104
4.1907908421187532  -2.1098737473210520 4.5400240486122989 0.0000000000000000 12.0000000000000000 105
4.2304069525508590  -2.1133820877842058 4.5526414438865226 0.0000000000000000 12.0000000000000000 106
4.2700249582523453  -2.1168030848200994 4.5649801879461354 0.0000000000000000 12.0000000000000000 107
4.3096448380260748  -2.1201393892433633 4.5770475859006439 0.0000000000000000 12.0000000000000000 108
4.3492665697761455  -2.1233935659226342 4.5888507610005185 0.0000000000000000 12.0000000000000000 109
4.3888901306028254  -2.1265680965639531 4.6003966574339739 0.0000000000000000 12.0000000000000000 110
4.4285154968913440  -2.1296653824144709 4.6116920432519128 0.0000000000000000 12.0000000000000000 111
4.4681426443948498  -2.1326877468876750 4.6227435134016561 0.0000000000000000 12.0000000000000000 112
4.5077715483118928  -2.1356374381115941 4.6335574928516836 0.0000000000000000 12.0000000000000000 113
4.5474021833586811  -2.1385166314013389 4.6441402397910947 0.0000000000000000 12.0000000000000000 114
4.5870345238364401  -2.1413274316574809 4.6544978488889264 0.0000000000000000 12.0000000000000000 115
4.6266685436941186  -2.1440718756917527 4.6646362545997189 0.0000000000000000 12.0000000000000000 116
4.6663042165867195  -2.1467519344816526 4.6745612345029564 0.0000000000000000 12.0000000000000000 117
4.7059415159294922  -2.1493695153554366 4.6842784126652415 0.0000000000000000 12.0000000000000000 118
4.7455804149482237  -2.1519264641091751 4.6937932630148413 0.0000000000000000 12.0000000000000000 119
4.7852208867258677  -2.1544245670573967 4.7031111127195659 0.0000000000000000 12.0000000000000000 120
4.8248629042456992  -2.1568655530189402 4.7122371455595040 0.0000000000000000 12.0000000000000000 121
4.8645064404312199  -2.1592510952396462 4.7211764052872569 0.0000000000000000 12.0000000000000000 122
4.9041514681830023  -2.1615828132534216 4.7299337989688475 0.0000000000000000 12.0000000000000000 123
4.9437979604126348  -2.1638622746833800 4.7385141002993656 0.0000000000000000 12.0000000000000000 124
4.9834458900739849  -2.1660909969845146 4.7469219528880311 0.0000000000000000 12.0000000000000000 125
5.0230952301918963  -2.1682704491296052 4.7551618735078147 0.0000000000000000 12.0000000000000000 126
5.0627459538885153  -2.1704020532398318 4.7632382553055717 0.0000000000000000 12.0000000000000000 127
5.1023980344073632  -2.1724871861616863 4.7711553709689873 0.0000000000000000 12.0000000000000000 128
5.1420514451353281  -2.1745271809916682 4.7789173758470458 0.0000000000000000 12.0000000000000000 129
5.1817061596226752  -2.1765233285503172 4.7865283110214065 0.0000000000000000 12.0000000000000000 130
5.2213621516012214  -2.1784768788070212 4.7939921063262663 0.0000000000000000 12.0000000000000000 131
5.2610193950007993  -2.1803890422570684 4.8013125833146280 0.0000000000000000 12.0000000000000000 132
5.3006778639640881  -2.1822609912523814 4.8084934581695249 0.0000000000000000 12.0000000000000000 133
5.3403375328599649  -2.1840938612873169 4.8155383445585453 0.0000000000000000 12.0000000000000000 134
5.3799983762954424  -2.1858887522409449 4.8224507564308938 0.0000000000000000 12.0000000000000000 135
5.4196603691262988  -2.1876467295770823 4.8292341107558467 0.0000000000000000 12.0000000000000000 136
5.4593234864664826  -2.1893688255035038 4.8358917302023023 0.0000000000000000 12.0000000000000000 137
5.4989877036963977  -2.1910560400915080 4.8424268457587685 0.0000000000000000 12.0000000000000000 138
5.5386529964701134  -2.1927093423571771 4.8488425992937243 0.0000000000000000 12.0000000000000000 139
5.5783193407216070  -2.1943296713055180 4.8551420460563204 0.0000000000000000 12.0000000000000000 140
5.6179867126700929  -2.1959179369387059 4.8613281571174252 0.0000000000000000 12.0000000000000000 141
5.6576550888244972  -2.1974750212295642 4.8674038217514060 0.0000000000000000 12.0000000000000000 142
5.6973244459871619  -2.1990017790614735 4.8733718497588754 0.0000000000000000 12.0000000000000000 143
5.7369947612568239  -2.2004990391357482 4.8792349737309966 0.0000000000000000 12.0000000000000000 144
5.7766660120309083  -2.2019676048476282 4.8849958512558658 0.0000000000000000 12.0000000000000000 145
5.8163381760072292  -2.2034082551318748 4.8906570670676288 0.0000000000000000 12.0000000000000000 146
5.8560112311851009  -2.2048217452790277 4.8962211351391041 0.0000000000000000 12.0000000000000000 147
5.8956851558659409  -2.2062088077232866 4.9016905007186535 0.0000000000000000 12.0000000000000000 148
5.9353599286533711  -2.2075701528030085 4.9070675423122250 0.0000000000000000 12.0000000000000000 149
5.9750355284529073  -2.2089064694947158 4.9123545736114407 0.0000000000000000 12.0000000000000000 150
6.0147119344712214  -2.2102184261215387 4.9175538453686229 0.0000000000000000 12.0000000000000000 151
6.0543891262150336  -2.2115066710369931 4.9226675472198718 0.0000000000000000 12.0000000000000000 152
6.0940670834896977  -2.2127718332848811 4.9276978094570465 0.0000000000000000 12.0000000000000000 153
6.1337457863974407  -2.2140145232362110 4.9326467047498239 0.0000000000000000 12.0000000000000000 154
6.1734252153353610  -2.2152353332038826 4.9375162498187510 0.0000000000000000 12.0000000000000000 155
6.2131053509931533  -2.2164348380359256 4.9423084070604828 0.0000000000000000 12.0000000000000000 156
6.2527861743506188  -2.2176135956880620 4.9470250861262022 0.0000000000000000 12.0000000000000000 157
6.2924676666749750  -2.2187721477762761 4.9516681454542768 0.0000000000000000 12.0000000000000000 158
6.3321498095179765  -2.2199110201101204 4.9562393937583478 0.0000000000000000 12.0000000000000000 159
6.3718325847128838  -2.2210307232074391 4.9607405914717697 0.0000000000000000 12.0000000000000000 160
6.4115159743712899  -2.2221317527911388 4.9651734521496529 0.0000000000000000 12.0000000000000000 161
6.4511999608798192  -2.2232145902686695 4.9695396438294202 0.0000000000000000 12.0000000000000000 162
6.4908845268967186  -2.2242797031947963 4.9738407903510433 0.0000000000000000 12.0000000000000000 163
6.5305696553483594  -2.2253275457182884 4.9780784726379856 0.0000000000000000 12.0000000000000000 164
6.5702553294256649  -2.2263585590130774 4.9822542299398869 0.0000000000000000 12.0000000000000000 165
6.6099415325804483  -2.2273731716944312 4.9863695610379670 0.0000000000000000 12.0000000000000000 166
6.6496282485217320  -2.2283718002207040 4.9904259254143168 0.0000000000000000 12.0000000000000000 167
6.6893154612119972  -2.2293548492811222 4.9944247443858725 0.0000000000000000 12.0000000000000000 168
6.7290031548634008  -2.2303227121701954 4.9983674022042042 0.0000000000000000 12.0000000000000000 169
6.7686913139339886  -2.2312757711491304 5.0022552471220507 0.0000000000000000 12.0000000000000000 170
6.8083799231238746  -2.2322143977947779 5.0060895924274655 0.0000000000000000 12.0000000000000000 171
6.8480689673714110  -2.2331389533365442 5.0098717174466687 0.0000000000000000 12.0000000000000000 172
6.8877584318493765  -2.2340497889816855 5.0136028685163163 0.0000000000000000 12.0000000000000000 173
6.9274483019611521  -2.2349472462294164 5.0172842599262317 0.0000000000000000 12.0000000000000000 174
6.9671385633369169  -2.2358316571742196 5.0209170748334273 0.0000000000000000 12.0000000000000000 175
7.0068292018298646  -2.2367033447987628 5.0245024661482010 0.0000000000000000 12.0000000000000000 176
7.0465202035124337  -2.2375626232567760 5.0280415573932338 0.0000000000000000 12.0000000000000000 177
7.0862115546725768  -2.2384097981462658 5.0315354435364714 0.0000000000000000 12.0000000000000000 178
7.1259032418100414  -2.2392451667733999 5.0349851917985049 0.0000000000000000 12.0000000000000000 179
7.1655952516327153  -2.2400690184074046 5.0383918424353791 0.0000000000000000 12.0000000000000000 180
7.2052875710529811  -2.2408816345268066 5.0417564094973928 0.0000000000000000 12.0000000000000000 181
7.2449801871841286  -2.2416832890572924 5.0450798815647806 0.0000000000000000 12.0000000000000000 182
7.2846730873368006  -2.2424742486015479 5.0483632224609121 0.0000000000000000 12.0000000000000000 183
7.3243662590155028  -2.2432547726612957 5.0516073719437076 0.0000000000000000 12.0000000000000000 184
7.3640596899151287  -2.2440251138518814 5.0548132463759581 0.0000000000000000 12.0000000000000000 185
7.4037533679175720  -2.2447855181095990 5.0579817393751760 0.0000000000000000 12.0000000000000000 186
7.4434472810883658  -2.2455362248920889 5.0611137224437170 0.0000000000000000 12.0000000000000000 187
7.4831414176733784  -2.2462774673719981 5.0642100455795855 0.0000000000000000 12.0000000000000000 188
7.5228357660955671  -2.2470094726241854 5.0672715378687831 0.0000000000000000 12.0000000000000000 189
7.5625303149517871  -2.2477324618066774 5.0702990080595685 0.0000000000000000 12.0000000000000000 190
7.6022250530096480  -2.2484466503355929 5.0732932451193049 0.0000000000000000 12.0000000000000000 191
7.6419199692044328  -2.2491522480542980 5.0762550187744218 0.0000000000000000 12.0000000000000000 192
7.6816150526360714  -2.2498494593969216 5.0791850800340468 0.0000000000000000 12.0000000000000000 193
7.7213102925661703  -2.2505384835465012 5.0820841616977557 0.0000000000000000 12.0000000000000000 194
7.7610056784150920  -2.2512195145879019 5.0849529788479888 0.0000000000000000 12.0000000000000000 195
