 # inv_tmp, energy, phys_var, phys_doublon, phys_num, step_i
0.0000000000000000  0.0091393438549340 1.1363873353117904 0.0000000000000000 12.0000000000000000 0
0.0416335274648154  -0.0382067479198400 1.1377001222326628 0.0000000000000000 12.0000000000000000 1
0.0831851772377470  -0.0854899012575230 1.1421739805571822 0.0000000000000000 12.0000000000000000 2
0.1246554941402437  -0.1326558559039518 1.1497856692354687 0.0000000000000000 12.0000000000000000 3
0.1660452043909148  -0.1796510133822383 1.1604989854704739 0.0000000000000000 12.0000000000000000 4
0.2073552097383950  -0.2264227294615517 1.1742651482365907 0.0000000000000000 12.0000000000000000 5
0.2485865802357492  -0.2729195945320010 1.1910233037709035 0.0000000000000000 12.0000000000000000 6
0.2897405457736978  -0.3190916984560376 1.2107011435818498 0.0000000000000000 12.0000000000000000 7
0.3308184865081515  -0.3648908768154724 1.2332156236395286 0.0000000000000000 12.0000000000000000 8
0.3718219223321394  -0.4102709358837616 1.2584737718594310 0.0000000000000000 12.0000000000000000 9
0.4127525015528945  -0.4551878541116191 1.2863735698019383 0.0000000000000000 12.0000000000000000 10
0.4536119889415163  -0.4995999584050611 1.3168048937031385 0.0000000000000000 12.0000000000000000 11
0.4944022533252591  -0.5434680739830590 1.3496504995339362 0.0000000000000000 12.0000000000000000 12
0.5351252548912605  -0.5867556471116301 1.3847870367444752 0.0000000000000000 12.0000000000000000 13
0.5757830323657056  -0.6294288405080071 1.4220860756682447 0.0000000000000000 12.0000000000000000 14
0.6163776902243955  -0.6714566016793140 1.4614151342013293 0.0000000000000000 12.0000000000000000 15
0.6569113860799086  -0.7128107048938090 1.5026386902958031 0.0000000000000000 12.0000000000000000 16
0.6973863183775320  -0.7534657678701576 1.5456191679640086 0.0000000000000000 12.0000000000000000 17
0.7378047145174205  -0.7933992446045738 1.5902178858304823 0.0000000000000000 12.0000000000000000 18
0.7781688195045722  -0.8325913960328333 1.6362959587379775 0.0000000000000000 12.0000000000000000 19
0.8184808852116955  -0.8710252404419077 1.6837151444606866 0.0000000000000000 12.0000000000000000 20
0.8587431603233948  -0.9086864857045029 1.7323386291528469 0.0000000000000000 12.0000000000000000 21
0.8989578810137362  -0.9455634455110471 1.7820317467193318 0.0000000000000000 12.0000000000000000 22
0.9391272623935513  -0.9816469418211996 1.8326626287980008 0.0000000000000000 12.0000000000000000 23
0.9792534907491284  -1.0169301957555728 1.8841027834586381 0.0000000000000000 12.0000000000000000 24
1.0193387165804315  -1.0514087091037350 1.9362276020249465 0.0000000000000000 12.0000000000000000 25
1.0593850484348719  -1.0850801385430451 1.9889167945950594 0.0000000000000000 12.0000000000000000 26
1.0993945475220557  -1.1179441645508719 2.0420547558601942 0.0000000000000000 12.0000000000000000 27
1.1393692230858541  -1.1500023568569491 2.0955308636940804 0.0000000000000000 12.0000000000000000 28
1.1793110285026411  -1.1812580381292590 2.1492397137065962 0.0000000000000000 12.0000000000000000 29
1.2192218580685192  -1.2117161474216755 2.2030812935270809 0.0000000000000000 12.0000000000000000 30
1.2591035444337759  -1.2413831047403245 2.2569611010136312 0.0000000000000000 12.0000000000000000 31
1.2989578566395443  -1.2702666779125074 2.3107902108839777 0.0000000000000000 12.0000000000000000 32
1.3387864987095652  -1.2983758527714000 2.3644852944436501 0.0000000000000000 12.0000000000000000 33
1.3785911087489449  -1.3257207075049298 2.4179685971616687 0.0000000000000000 12.0000000000000000 34
1.4183732585017046  -1.3523122918605597 2.4711678788266389 0.0000000000000000 12.0000000000000000 35
1.4581344533196139  -1.3781625117516234 2.5240163209213167 0.0000000000000000 12.0000000000000000 36
1.4978761324961170  -1.4032840196763336 2.5764524056953322 0.0000000000000000 12.0000000000000000 37
1.5375996699210337  -1.4276901112388489 2.6284197712066204 0.0000000000000000 12.0000000000000000 38
1.5773063750139333  -1.4513946279529706 2.6798670463546559 0.0000000000000000 12.0000000000000000 39
1.6169974938966285  -1.4744118664133503 2.7307476696535562 0.0000000000000000 12.0000000000000000 40
1.6566742107679600  -1.4967564938362041 2.7810196952003405 0.0000000000000000 12.0000000000000000 41
1.6963376494468818  -1.5184434699009099 2.8306455889915618 0.0000000000000000 12.0000000000000000 42
1.7359888750527301  -1.5394879747646908 2.8795920184372061 0.0000000000000000 12.0000000000000000 43
1.7756288957944399  -1.5599053430743057 2.9278296376202571 0.0000000000000000 12.0000000000000000 44
1.8152586648432600  -1.5797110037599620 2.9753328705582875 0.0000000000000000 12.0000000000000000 45
1.8548790822662231  -1.5989204253669123 3.0220796944436699 0.0000000000000000 12.0000000000000000 46
1.8944909970002068  -1.6175490666582146 3.0680514245744033 0.0000000000000000 12.0000000000000000 47
1.9340952088488408  -1.6356123322070042 3.1132325024397534 0.0000000000000000 12.0000000000000000 48
1.9736924704867764  -1.6531255326874799 3.1576102881955501 0.0000000000000000 12.0000000000000000 49
2.0132834894579390  -1.6701038495697558 3.2011748585536139 0.0000000000000000 12.0000000000000000 50
2.0528689301562908  -1.6865623039238373 3.2439188109182266 0.0000000000000000 12.0000000000000000 51
2.0924494157794009  -1.7025157290417949 3.2858370744303005 0.0000000000000000 12.0000000000000000 52
2.1320255302466884  -1.7179787465936924 3.3269267284254900 0.0000000000000000 12.0000000000000000 53
2.1715978200756250  -1.7329657460417602 3.3671868286760023 0.0000000000000000 12.0000000000000000 54
2.2111667962104744  -1.7474908670478335 3.4066182416657078 0.0000000000000000 12.0000000000000000 55
2.2507329357992498  -1.7615679846210117 3.4452234870435108 0.0000000000000000 12.0000000000000000 56
2.2902966839155647  -1.7752106967652441 3.4830065883097650 0.0000000000000000 12.0000000000000000 57
2.3298584552229458  -1.7884323143999166 3.5199729317133501 0.0000000000000000 12.0000000000000000 58
2.3694186355798923  -1.8012458533401527 3.5561291332719334 0.0000000000000000 12.0000000000000000 59
2.4089775835846581  -1.8136640281372256 3.5914829137736177 0.0000000000000000 12.0000000000000000 60
2.4485356320592651  -1.8256992475930045 3.6260429815735744 0.0000000000000000 12.0000000000000000 61
2.4880930894727515  -1.8373636117757473 3.6598189229633369 0.0000000000000000 12.0000000000000000 62
2.5276502413040354  -1.8486689103772376 3.6928210998619537 0.0000000000000000 12.0000000000000000 63
2.5672073513451470  -1.8596266222638560 3.7250605545567588 0.0000000000000000 12.0000000000000000 64
2.6067646629458210  -1.8702479160858347 3.7565489212055412 0.0000000000000000 12.0000000000000000 65
2.6463224002006820  -1.8805436518202998 3.7872983438012580 0.0000000000000000 12.0000000000000000 66
2.6858807690804611  -1.8905243831342069 3.8173214002939004 0.0000000000000000 12.0000000000000000 67
2.7254399585087579  -1.9002003604633777 3.8466310325616124 0.0000000000000000 12.0000000000000000 68
2.7650001413860488  -1.9095815347130147 3.8752404819232718 0.0000000000000000 12.0000000000000000 69
2.8045614755626600  -1.9186775614939133 3.9031632298879817 0.0000000000000000 12.0000000000000000 70
2.8441241047625057  -1.9274978058165677 3.9304129438418296 0.0000000000000000 12.0000000000000000 71
2.8836881594594157  -1.9360513471729397 3.9570034273793460 0.0000000000000000 12.0000000000000000 72
2.9232537577078950  -1.9443469849424506 3.9829485749950901 0.0000000000000000 12.0000000000000000 73
2.9628210059301532  -1.9523932440652563 4.0082623308603820 0.0000000000000000 12.0000000000000000 74
3.0023899996612249  -1.9601983809316186 4.0329586514200928 0.0000000000000000 12.0000000000000000 75
3.0419608242539962  -1.9677703894415361 4.0570514715552592 0.0000000000000000 12.0000000000000000 76
3.0815335555458940  -1.9751170071938073 4.0805546740683907 0.0000000000000000 12.0000000000000000 77
3.1211082604889766  -1.9822457217680254 4.1034820622596717 0.0000000000000000 12.0000000000000000 78
3.1606849977451192  -1.9891637770671873 4.1258473353735372 0.0000000000000000 12.0000000000000000 79
3.2002638182479219  -1.9958781796922902 4.1476640667068105 0.0000000000000000 12.0000000000000000 80
3.2398447657329421  -2.0023957053235928 4.1689456841804740 0.0000000000000000 12.0000000000000000 81
3.2794278772377861  -2.0087229050863509 4.1897054531885463 0.0000000000000000 12.0000000000000000 82
3.3190131835735324  -2.0148661118815605 4.2099564615481073 0.0000000000000000 12.0000000000000000 83
3.3586007097689263  -2.0208314466647281 4.2297116063851004 0.0000000000000000 12.0000000000000000 84
3.3981904754887151  -2.0266248246579583 4.2489835828007090 0.0000000000000000 12.0000000000000000 85
3.4377824954274319  -2.0322519614826935 4.2677848741727171 0.0000000000000000 12.0000000000000000 86
3.4773767796799029  -2.0377183792021945 4.2861277439557774 0.0000000000000000 12.0000000000000000 87
3.5169733340896756  -2.0430294122646155 4.3040242288533728 0.0000000000000000 12.0000000000000000 88
3.5565721605765370  -2.0481902133388417 4.3214861332427725 0.0000000000000000 12.0000000000000000 89
3.5961732574442022  -2.0532057590367296 4.3385250247423963 0.0000000000000000 12.0000000000000000 90
3.6357766196692589  -2.0580808555164367 4.3551522308187733 0.0000000000000000 12.0000000000000000 91
3.6753822391723481  -2.0628201439626590 4.3713788363373718 0.0000000000000000 12.0000000000000000 92
3.7149901050725442  -2.0674281059405066 4.3872156819686561 0.0000000000000000 12.0000000000000000 93
3.7546002039258628  -2.0719090686205512 4.4026733633670521 0.0000000000000000 12.0000000000000000 94
3.7942125199487386  -2.0762672098733601 4.4177622310466100 0.0000000000000000 12.0000000000000000 95
3.8338270352273236  -2.0805065632324569 4.4324923908830698 0.0000000000000000 12.0000000000000000 96
3.8734437299133782  -2.0846310227252087 4.4468737051770324 0.0000000000000000 12.0000000000000000 97
3.9130625824075058  -2.0886443475716909 4.4609157942184678 0.0000000000000000 12.0000000000000000 98
3.9526835695304436  -2.0925501667519693 4.4746280382969523 0.0000000000000000 12.0000000000000000 99
3.9923066666830738  -2.0963519834426720 4.4880195801069940 0.0000000000000000 12.0000000000000000 100
4.0319318479958053  -2.1000531793240191 4.5010993275013877 0.0000000000000000 12.0000000000000000 101
4.0715590864679294  -2.1036570187587964 4.5138759565498088 0.0000000000000000 12.0000000000000000 102
4.1111883540975205  -2.1071666528450006 4.5263579148631052 0.0000000000000000 12.0000000000000000 103
4.1508196220024347  -2.1105851233440984 4.5385534251472821 0.0000000000000000 12.0000000000000000 104
4.1904528605329174  -2.1139153664870038 4.5504704889541605 0.0000000000000000 12.0000000000000000 105
4.2300880393763105  -2.1171602166600612 4.5621168905984755 0.0000000000000000 12.0000000000000000 106
4.2697251276543327  -2.1203224099733973 4.5735002012140828 0.0000000000000000 12.0000000000000000 107
4.3093640940133575  -2.1234045877142025 4.5846277829241826 0.0000000000000000 12.0000000000000000 108
4.3490049067081173  -2.1264092996874218 4.5955067931028033 0.0000000000000000 12.0000000000000000 109
4.3886475336792206  -2.1293390074465854 4.6061441887069501 0.0000000000000000 12.0000000000000000 110
4.4282919426248597  -2.1321960874174013 4.6165467306607777 0.0000000000000000 12.0000000000000000 111
4.4679381010670589  -2.1349828339168382 4.6267209882748510 0.0000000000000000 12.0000000000000000 112
4.5075859764127930  -2.1377014620704520 4.6366733436853300 0.0000000000000000 12.0000000000000000 113
4.5472355360103034  -2.1403541106306601 4.6464099962994192 0.0000000000000000 12.0000000000000000 114
4.5868867472008858  -2.1429428446987178 4.6559369672347337 0.0000000000000000 12.0000000000000000 115
4.6265395773664650  -2.1454696583531270 4.6652601037417210 0.0000000000000000 12.0000000000000000 116
4.6661939939731951  -2.1479364771871454 4.6743850835992991 0.0000000000000000 12.0000000000000000 117
4.7058499646113372  -2.1503451607581328 4.6833174194750598 0.0000000000000000 12.0000000000000000 118
4.7455074570316693  -2.1526975049513002 4.6920624632423280 0.0000000000000000 12.0000000000000000 119
4.7851664391786430  -2.1549952442605393 4.7006254102474117 0.0000000000000000 12.0000000000000000 120
4.8248268792204874  -2.1572400539888799 4.7090113035210281 0.0000000000000000 12.0000000000000000 121
4.8644887455764740  -2.1594335523710591 4.7172250379288778 0.0000000000000000 12.0000000000000000 122
4.9041520069415263  -2.1615773026207301 4.7252713642568107 0.0000000000000000 12.0000000000000000 123
4.9438166323083470  -2.1636728149047131 4.7331548932269722 0.0000000000000000 12.0000000000000000 124
4.9834825909872285  -2.1657215482466423 4.7408800994415152 0.0000000000000000 12.0000000000000000 125
5.0231498526237122  -2.1677249123623725 4.7484513252514260 0.0000000000000000 12.0000000000000000 126
5.0628183872142420  -2.1696842694293519 4.7558727845480435 0.0000000000000000 12.0000000000000000 127
5.1024881651199321  -2.1716009357922301 4.7631485664757811 0.0000000000000000 12.0000000000000000 128
5.1421591570786243  -2.1734761836068075 4.7702826390644697 0.0000000000000000 12.0000000000000000 129
5.1818313342152962  -2.1753112424244407 4.7772788527804764 0.0000000000000000 12.0000000000000000 130
5.2215046680510016  -2.1771073007189479 4.7841409439958751 0.0000000000000000 12.0000000000000000 131
5.2611791305104001  -2.1788655073579788 4.7908725383752531 0.0000000000000000 12.0000000000000000 132
5.3008546939280086  -2.1805869730208034 4.7974771541801760 0.0000000000000000 12.0000000000000000 133
5.3405313310532518  -2.1822727715643659 4.8039582054912451 0.0000000000000000 12.0000000000000000 134
5.3802090150544259  -2.1839239413394158 4.8103190053481866 0.0000000000000000 12.0000000000000000 135
5.4198877195216344  -2.1855414864585101 4.8165627688084971 0.0000000000000000 12.0000000000000000 136
5.4595674184687857  -2.1871263780175503 4.8226926159252121 0.0000000000000000 12.0000000000000000 137
5.4992480863347399  -2.1886795552725440 4.8287115746447675 0.0000000000000000 12.0000000000000000 138
5.5389296979836482  -2.1902019267731747 4.8346225836257544 0.0000000000000000 12.0000000000000000 139
5.5786122287045758  -2.1916943714547217 4.8404284949797489 0.0000000000000000 12.0000000000000000 140
5.6182956542104669  -2.1931577396898616 4.8461320769352909 0.0000000000000000 12.0000000000000000 141
5.6579799506364701  -2.1945928543017659 4.8517360164262708 0.0000000000000000 12.0000000000000000 142
5.6976650945377481  -2.1960005115399266 4.8572429216060939 0.0000000000000000 12.0000000000000000 143
5.7373510628867601  -2.1973814820200577 4.8626553242888635 0.0000000000000000 12.0000000000000000 144
5.7770378330700938  -2.1987365116293769 4.8679756823191607 0.0000000000000000 12.0000000000000000 145
5.8167253828848802  -2.2000663223985324 4.8732063818717233 0.0000000000000000 12.0000000000000000 146
5.8564136905348434  -2.2013716133414287 4.8783497396826538 0.0000000000000000 12.0000000000000000 147
5.8961027346260106  -2.2026530612640820 4.8834080052135427 0.0000000000000000 12.0000000000000000 148
5.9357924941621247  -2.2039113215436994 4.8883833627501758 0.0000000000000000 12.0000000000000000 149
5.9754829485397938  -2.2051470288790420 4.8932779334372443 0.0000000000000000 12.0000000000000000 150
6.0151740775434028  -2.2063607980131490 4.8980937772506934 0.0000000000000000 12.0000000000000000 151
6.0548658613398212  -2.2075532244294545 4.9028328949092375 0.0000000000000000 12.0000000000000000 152
6.0945582804729348  -2.2087248850222703 4.9074972297265296 0.0000000000000000 12.0000000000000000 153
6.1342513158580152  -2.2098763387425997 4.9120886694056871 0.0000000000000000 12.0000000000000000 154
6.1739449487759623  -2.2110081272202038 4.9166090477775182 0.0000000000000000 12.0000000000000000 155
6.2136391608674462  -2.2121207753627772 4.9210601464840966 0.0000000000000000 12.0000000000000000 156
6.2533339341269336  -2.2132147919331411 4.9254436966090980 0.0000000000000000 12.0000000000000000 157
6.2930292508966730  -2.2142906701052114 4.9297613802564983 0.0000000000000000 12.0000000000000000 158
6.3327250938606001  -2.2153488879995860 4.9340148320789563 0.0000000000000000 12.0000000000000000 159
6.3724214460382171  -2.2163899091995027 4.9382056407574302 0.0000000000000000 12.0000000000000000 160
6.4121182907784329  -2.2174141832478704 4.9423353504333738 0.0000000000000000 12.0000000000000000 161
6.4518156117534131  -2.2184221461261426 4.9464054620949796 0.0000000000000000 12.0000000000000000 162
6.4915133929524025  -2.2194142207156502 4.9504174349187249 0.0000000000000000 12.0000000000000000 163
6.5312116186755791  -2.2203908172421105 4.9543726875676777 0.0000000000000000 12.0000000000000000 164
6.5709102735279128  -2.2213523337039027 4.9582725994477963 0.0000000000000000 12.0000000000000000 165
6.6106093424130732  -2.2222991562847261 4.9621185119234772 0.0000000000000000 12.0000000000000000 166
6.6503088105273500  -2.2232316597512605 4.9659117294937456 0.0000000000000000 12.0000000000000000 167
6.6900086633536464  -2.2241502078363506 4.9696535209301267 0.0000000000000000 12.0000000000000000 168
6.7297088866554962  -2.2250551536082703 4.9733451203775054 0.0000000000000000 12.0000000000000000 169
6.7694094664711688  -2.2259468398266224 4.9769877284191395 0.0000000000000000 12.0000000000000000 170
6.8091103891078157  -2.2268255992853154 4.9805825131068939 0.0000000000000000 12.0000000000000000 171
6.8488116411356961  -2.2276917551431716 4.9841306109578625 0.0000000000000000 12.0000000000000000 172
6.8885132093824799  -2.2285456212425707 4.9876331279184125 0.0000000000000000 12.0000000000000000 173
6.9282150809276164  -2.2293875024166212 4.9910911402967333 0.0000000000000000 12.0000000000000000 174
6.9679172430967951  -2.2302176947852708 4.9945056956648797 0.0000000000000000 12.0000000000000000 175
7.0076196834564799  -2.2310364860407748 4.9978778137313000 0.0000000000000000 12.0000000000000000 176
7.0473223898085520  -2.2318441557229187 5.0012084871848383 0.0000000000000000 12.0000000000000000 177
7.0870253501850060  -2.2326409754844043 5.0044986825111062 0.0000000000000000 12.0000000000000000 178
7.1267285528427671  -2.2334272093467096 5.0077493407821398 0.0000000000000000 12.0000000000000000 179
7.1664319862585959  -2.2342031139468648 5.0109613784202747 0.0000000000000000 12.0000000000000000 180
7.2061356391240681  -2.2349689387753973 5.0141356879369532 0.0000000000000000 12.0000000000000000 181
7.2458395003406730  -2.2357249264058416 5.0172731386475160 0.0000000000000000 12.0000000000000000 182
7.2855435590149877  -2.2364713127161062 5.0203745773625261 0.0000000000000000 12.0000000000000000 183
7.3252478044539613  -2.2372083271019800 5.0234408290565682 0.0000000000000000 12.0000000000000000 184
7.3649522261602876  -2.2379361926831192 5.0264726975152731 0.0000000000000000 12.0000000000000000 185
7.4046568138278763  -2.2386551265017607 5.0294709659611989 0.0000000000000000 12.0000000000000000 186
7.4443615573374169  -2.2393653397144342 5.0324363976593220 0.0000000000000000 12.0000000000000000 187
7.4840664467520472  -2.2400670377769503 5.0353697365029273 0.0000000000000000 12.0000000000000000 188
7.5237714723131024  -2.2407604206229257 5.0382717075803534 0.0000000000000000 12.0000000000000000 189
7.5634766244359755  -2.2414456828360216 5.0411430177233916 0.0000000000000000 12.0000000000000000 190
7.6031818937060587  -2.2421230138162205 5.0439843560379085 0.0000000000000000 12.0000000000000000 191
7.6428872708747884  -2.2427925979403014 5.0467963944173420 0.0000000000000000 12.0000000000000000 192
7.6825927468557724  -2.2434546147167356 5.0495797880394973 0.0000000000000000 12.0000000000000000 193
7.7222983127210174  -2.2441092389352302 5.0523351758473929 0.0000000000000000 12.0000000000000000 194
7.7620039596972399  -2.2447566408111057 5.0550631810146038 0.0000000000000000 12.0000000000000000 195
