 # inv_tmp, energy, phys_var, phys_doublon, phys_num, step_i
0.0000000000000000  -0.0044688881940302 1.1134089569158958 0.0000000000000000 12.0000000000000000 0
0.0416225672688091  -0.0508563319386776 1.1168156205201865 0.0000000000000000 12.0000000000000000 1
0.0831648864369181  -0.0972219331299592 1.1233623207907244 0.0000000000000000 12.0000000000000000 2
0.1246273706127796  -0.1435175154433335 1.1330252085075347 0.0000000000000000 12.0000000000000000 3
0.1660105963041444  -0.1896949839477282 1.1457684374995010 0.0000000000000000 12.0000000000000000 4
0.2073153004730183  -0.2357065647524694 1.1615444397376193 0.0000000000000000 12.0000000000000000 5
0.2485423764066942  -0.2815050434868039 1.1802943064459741 0.0000000000000000 12.0000000000000000 6
0.2896928684503096  -0.3270439997089191 1.2019482698552644 0.0000000000000000 12.0000000000000000 7
0.3307679656645847  -0.3722780343995007 1.2264262785453817 0.0000000000000000 12.0000000000000000 8
0.3717689944891882  -0.4171629878173628 1.2536386578124903 0.0000000000000000 12.0000000000000000 9
0.4126974105070939  -0.4616561451776327 1.2834868451922070 0.0000000000000000 12.0000000000000000 10
0.4535547894179405  -0.5057164278503420 1.3158641902068693 0.0000000000000000 12.0000000000000000 11
0.4943428173384939  -0.5493045680612210 1.3506568066048275 0.0000000000000000 12.0000000000000000 12
0.5350632805556242  -0.5923832653978587 1.3877444648380042 0.0000000000000000 12.0000000000000000 13
0.5757180548616573  -0.6349173237728163 1.4270015122844046 0.0000000000000000 12.0000000000000000 14
0.6163090946035251  -0.6768737678601990 1.4682978087602503 0.0000000000000000 12.0000000000000000 15
0.6568384215759361  -0.7182219383926938 1.5114996651673418 0.0000000000000000 12.0000000000000000 16
0.6973081138849675  -0.7589335660718556 1.5564707736634302 0.0000000000000000 12.0000000000000000 17
0.7377202949023400  -0.7989828241958725 1.6030731184981530 0.0000000000000000 12.0000000000000000 18
0.7780771224224435  -0.8383463604377135 1.6511678575911235 0.0000000000000000 12.0000000000000000 19
0.8183807781243292  -0.8770033085053258 1.7006161660052088 0.0000000000000000 12.0000000000000000 20
0.8586334574297142  -0.9149352806788691 1.7512800336486687 0.0000000000000000 12.0000000000000000 21
0.8988373598359871  -0.9521263424439497 1.8030230107864660 0.0000000000000000 12.0000000000000000 22
0.9389946797905838  -0.9885629706219421 1.8557108962163649 0.0000000000000000 12.0000000000000000 23
0.9791075981603206  -1.0242339965381539 1.9092123642358181 0.0000000000000000 12.0000000000000000 24
1.0191782743366398  -1.0591305358661458 1.9633995277597991 0.0000000000000000 12.0000000000000000 25
1.0592088390055052  -1.0932459068439857 2.0181484361219160 0.0000000000000000 12.0000000000000000 26
1.0992013875991593  -1.1265755385781273 2.0733395071793335 0.0000000000000000 12.0000000000000000 27
1.1391579744362688  -1.1591168711367945 2.1288578943298360 0.0000000000000000 12.0000000000000000 28
1.1790806075473381  -1.1908692490910946 2.1845937899249335 0.0000000000000000 12.0000000000000000 29
1.2189712441736906  -1.2218338100932458 2.2404426673189182 0.0000000000000000 12.0000000000000000 30
1.2588317869209251  -1.2520133699917386 2.2963054644275251 0.0000000000000000 12.0000000000000000 31
1.2986640805415191  -1.2814123058775611 2.3520887121820047 0.0000000000000000 12.0000000000000000 32
1.3384699093161789  -1.3100364383381944 2.4077046116588572 0.0000000000000000 12.0000000000000000 33
1.3782509949995576  -1.3378929140710132 2.4630710639490605 0.0000000000000000 12.0000000000000000 34
1.4180089952930499  -1.3649900898785172 2.5181116570113833 0.0000000000000000 12.0000000000000000 35
1.4577455028053774  -1.3913374189381156 2.5727556138428067 0.0000000000000000 12.0000000000000000 36
1.4974620444605866  -1.4169453401112218 2.6269377063054007 0.0000000000000000 12.0000000000000000 37
1.5371600813127049  -1.4418251709330532 2.6805981388849154 0.0000000000000000 12.0000000000000000 38
1.5768410087266214  -1.4659890048071056 2.7336824065326781 0.0000000000000000 12.0000000000000000 39
1.6165061568855814  -1.4894496128185843 2.7861411305702797 0.0000000000000000 12.0000000000000000 40
1.6561567915870163  -1.5122203504797984 2.8379298764263230 0.0000000000000000 12.0000000000000000 41
1.6957941152900660  -1.5343150696284766 2.8890089567354909 0.0000000000000000 12.0000000000000000 42
1.7354192683801057  -1.5557480356173938 2.9393432230713894 0.0000000000000000 12.0000000000000000 43
1.7750333306177160  -1.5765338498606023 2.9889018493135193 0.0000000000000000 12.0000000000000000 44
1.8146373227417958  -1.5966873777378290 3.0376581093720540 0.0000000000000000 12.0000000000000000 45
1.8542322081988638  -1.6162236818039004 3.0855891517176492 0.0000000000000000 12.0000000000000000 46
1.8938188949729309  -1.6351579602037760 3.1326757728918881 0.0000000000000000 12.0000000000000000 47
1.9333982374926866  -1.6535054901554607 3.1789021919110816 0.0000000000000000 12.0000000000000000 48
1.9729710385949866  -1.6712815763321092 3.2242558272251718 0.0000000000000000 12.0000000000000000 49
2.0125380515258686  -1.6885015039501390 3.2687270776561190 0.0000000000000000 12.0000000000000000 50
2.0520999819623742  -1.7051804963517569 3.3123091085189560 0.0000000000000000 12.0000000000000000 51
2.0916574900404798  -1.7213336768570451 3.3549976439234754 0.0000000000000000 12.0000000000000000 52
2.1312111923762518  -1.7369760346521179 3.3967907660669772 0.0000000000000000 12.0000000000000000 53
2.1707616640690914  -1.7521223944751554 3.4376887221577994 0.0000000000000000 12.0000000000000000 54
2.2103094406775106  -1.7667873898608821 3.4776937394559657 0.0000000000000000 12.0000000000000000 55
2.2498550201593304  -1.7809854397055318 3.5168098487802406 0.0000000000000000 12.0000000000000000 56
2.2893988647695176  -1.7947307279183145 3.5550427167098606 0.0000000000000000 12.0000000000000000 57
2.3289414029100839  -1.8080371859310955 3.5923994866029831 0.0000000000000000 12.0000000000000000 58
2.3684830309275142  -1.8209184778454564 3.6288886284619943 0.0000000000000000 12.0000000000000000 59
2.4080241148541841  -1.8333879880046393 3.6645197975966797 0.0000000000000000 12.0000000000000000 60
2.4475649920910603  -1.8454588107873466 3.6993037019694563 0.0000000000000000 12.0000000000000000 61
2.4871059730297289  -1.8571437424302339 3.7332519780505571 0.0000000000000000 12.0000000000000000 62
2.5266473426124652  -1.8684552746963106 3.7663770749651491 0.0000000000000000 12.0000000000000000 63
2.5661893618296268  -1.8794055902169666 3.7986921466770429 0.0000000000000000 12.0000000000000000 64
2.6057322691541538  -1.8900065593458946 3.8302109519242111 0.0000000000000000 12.0000000000000000 65
2.6452762819133810  -1.9002697383737082 3.8609477615992671 0.0000000000000000 12.0000000000000000 66
2.6848215975987433  -1.9102063689621758 3.8909172732516204 0.0000000000000000 12.0000000000000000 67
2.7243683951142503  -1.9198273786672109 3.9201345323775572 0.0000000000000000 12.0000000000000000 68
2.7639168359648707  -1.9291433824291793 3.9486148601580200 0.0000000000000000 12.0000000000000000 69
2.8034670653861760  -1.9381646849184868 3.9763737873019522 0.0000000000000000 12.0000000000000000 70
2.8430192134167682  -1.9469012836332584 4.0034269936541227 0.0000000000000000 12.0000000000000000 71
2.8825733959151418  -1.9553628726541996 4.0297902532303302 0.0000000000000000 12.0000000000000000 72
2.9221297155227495  -1.9635588469697893 4.0554793843492725 0.0000000000000000 12.0000000000000000 73
2.9616882625751124  -1.9714983072923962 4.0805102045386299 0.0000000000000000 12.0000000000000000 74
3.0012491159628611  -1.9791900652928585 4.1048984899024656 0.0000000000000000 12.0000000000000000 75
3.0408123439446455  -1.9866426491877478 4.1286599386482994 0.0000000000000000 12.0000000000000000 76
3.0803780049138587  -1.9938643096195374 4.1518101384836115 0.0000000000000000 12.0000000000000000 77
3.1199461481211079  -2.0008630257756934 4.1743645376044078 0.0000000000000000 12.0000000000000000 78
3.1595168143543861  -2.0076465116979030 4.1963384190109405 0.0000000000000000 12.0000000000000000 79
3.1990900365788444  -2.0142222227375748 4.2177468778990939 0.0000000000000000 12.0000000000000000 80
3.2386658405380486  -2.0205973621182554 4.2386048018888820 0.0000000000000000 12.0000000000000000 81
3.2782442453185672  -2.0267788875697774 4.2589268538647280 0.0000000000000000 12.0000000000000000 82
3.3178252638796875  -2.0327735180027133 4.2787274572151057 0.0000000000000000 12.0000000000000000 83
3.3574089035500090  -2.0385877401952914 4.2980207832717561 0.0000000000000000 12.0000000000000000 84
3.3969951664926090  -2.0442278154680675 4.3168207407610986 0.0000000000000000 12.0000000000000000 85
3.4365840501404250  -2.0496997863246684 4.3351409670924435 0.0000000000000000 12.0000000000000000 86
3.4761755476034391  -2.0550094830394499 4.3529948213189975 0.0000000000000000 12.0000000000000000 87
3.5157696480491785  -2.0601625301755591 4.3703953786189214 0.0000000000000000 12.0000000000000000 88
3.5553663370580093  -2.0651643530188970 4.3873554261541861 0.0000000000000000 12.0000000000000000 89
3.5949655969546184  -2.0700201839156169 4.4038874601750324 0.0000000000000000 12.0000000000000000 90
3.6345674071170375  -2.0747350685025721 4.4200036842475257 0.0000000000000000 12.0000000000000000 91
3.6741717442644828  -2.0793138718217934 4.4357160084907745 0.0000000000000000 12.0000000000000000 92
3.7137785827252476  -2.0837612843115005 4.4510360497188222 0.0000000000000000 12.0000000000000000 93
3.7533878946858148  -2.0880818276675641 4.4659751323905414 0.0000000000000000 12.0000000000000000 94
3.7929996504223031  -2.0922798605704860 4.4805442902783055 0.0000000000000000 12.0000000000000000 95
3.8326138185152976  -2.0963595842740537 4.4947542687734439 0.0000000000000000 12.0000000000000000 96
3.8722303660490942  -2.1003250480527806 4.5086155277530802 0.0000000000000000 12.0000000000000000 97
3.9118492587962805  -2.1041801545061047 4.5221382449393790 0.0000000000000000 12.0000000000000000 98
3.9514704613885878  -2.1079286647180755 4.5353323196878801 0.0000000000000000 12.0000000000000000 99
3.9910939374748557  -2.1115742032719345 4.5482073771472118 0.0000000000000000 12.0000000000000000 100
4.0307196498669198  -2.1151202631195956 4.5607727727373799 0.0000000000000000 12.0000000000000000 101
4.0703475606742048  -2.1185702103065234 4.5730375968986623 0.0000000000000000 12.0000000000000000 102
4.1099776314277285  -2.1219272885530280 4.5850106800674428 0.0000000000000000 12.0000000000000000 103
4.1496098231942229  -2.1251946236933072 4.5967005978393347 0.0000000000000000 12.0000000000000000 104
4.1892440966809970  -2.1283752279740096 4.6081156762837931 0.0000000000000000 12.0000000000000000 105
4.2288804123321624  -2.1314720042142978 4.6192639973776579 0.0000000000000000 12.0000000000000000 106
4.2685187304168055  -2.1344877498297099 4.6301534045285697 0.0000000000000000 12.0000000000000000 107
4.3081590111096215  -2.1374251607222892 4.6407915081617643 0.0000000000000000 12.0000000000000000 108
4.3478012145645435  -2.1402868350396620 4.6511856913467824 0.0000000000000000 12.0000000000000000 109
4.3874453009818275  -2.1430752768058743 4.6613431154429481 0.0000000000000000 12.0000000000000000 110
4.4270912306690660  -2.1457928994269198 4.6712707257447157 0.0000000000000000 12.0000000000000000 111
4.4667389640965167  -2.1484420290739550 4.6809752571102194 0.0000000000000000 12.0000000000000000 112
4.5063884619471875  -2.1510249079473631 4.6904632395581345 0.0000000000000000 12.0000000000000000 113
4.5460396851620128  -2.1535436974247291 4.6997410038197653 0.0000000000000000 12.0000000000000000 114
4.5856925949804959  -2.1560004810959779 4.7088146868349341 0.0000000000000000 12.0000000000000000 115
4.6253471529771231  -2.1583972676888235 4.7176902371815617 0.0000000000000000 12.0000000000000000 116
4.6650033210938862  -2.1607359938877475 4.7263734204302530 0.0000000000000000 12.0000000000000000 117
4.7046610616691718  -2.1630185270497044 4.7348698244164851 0.0000000000000000 12.0000000000000000 118
4.7443203374633001  -2.1652466678196887 4.7431848644238199 0.0000000000000000 12.0000000000000000 119
4.7839811116809701  -2.1674221526493538 4.7513237882729111 0.0000000000000000 12.0000000000000000 120
4.8236433479908385  -2.1695466562217351 4.7592916813116890 0.0000000000000000 12.0000000000000000 121
4.8633070105424521  -2.1716217937851883 4.7670934713030775 0.0000000000000000 12.0000000000000000 122
4.9029720639807506  -2.1736491233994943 4.7747339332072514 0.0000000000000000 12.0000000000000000 123
4.9426384734583166  -2.1756301480971549 4.7822176938561904 0.0000000000000000 12.0000000000000000 124
4.9823062046455675  -2.1775663179626985 4.7895492365187078 0.0000000000000000 12.0000000000000000 125
5.0219752237390480  -2.1794590321328986 4.7967329053549310 0.0000000000000000 12.0000000000000000 126
5.0616454974679783  -2.1813096407206229 4.8037729097593793 0.0000000000000000 12.0000000000000000 127
5.1013169930992124  -2.1831194466650534 4.8106733285924790 0.0000000000000000 12.0000000000000000 128
5.1409896784407341  -2.1848897075108717 4.8174381143005078 0.0000000000000000 12.0000000000000000 129
5.1806635218438162  -2.1866216371190061 4.8240710969244933 0.0000000000000000 12.0000000000000000 130
5.2203384922039717  -2.1883164073114241 4.8305759879987340 0.0000000000000000 12.0000000000000000 131
5.2600145589607985  -2.1899751494523461 4.8369563843398922 0.0000000000000000 12.0000000000000000 132
5.2996916920968049  -2.1915989559683253 4.8432157717279427 0.0000000000000000 12.0000000000000000 133
5.3393698621353476  -2.1931888818093714 4.8493575284803345 0.0000000000000000 12.0000000000000000 134
5.3790490401377342  -2.1947459458533736 4.8553849289208957 0.0000000000000000 12.0000000000000000 135
5.4187291976995793  -2.1962711322559860 4.8613011467452969 0.0000000000000000 12.0000000000000000 136
5.4584103069465115  -2.1977653917479603 4.8671092582847706 0.0000000000000000 12.0000000000000000 137
5.4980923405292765  -2.1992296428820484 4.8728122456702261 0.0000000000000000 12.0000000000000000 138
5.5377752716183011  -2.2006647732312596 4.8784129998985017 0.0000000000000000 12.0000000000000000 139
5.5774590738978000  -2.2020716405404928 4.8839143238031459 0.0000000000000000 12.0000000000000000 140
5.6171437215594642  -2.2034510738332149 4.8893189349316586 0.0000000000000000 12.0000000000000000 141
5.6568291892957774  -2.2048038744750165 4.8946294683314902 0.0000000000000000 12.0000000000000000 142
5.6965154522930206  -2.2061308171956822 4.8998484792469599 0.0000000000000000 12.0000000000000000 143
5.7362024862240046  -2.2074326510713949 4.9049784457293981 0.0000000000000000 12.0000000000000000 144
5.7758902672405696  -2.2087101004686254 4.9100217711626177 0.0000000000000000 12.0000000000000000 145
5.8155787719658782  -2.2099638659512704 4.9149807867061801 0.0000000000000000 12.0000000000000000 146
5.8552679774865597  -2.2111946251523835 4.9198577536585093 0.0000000000000000 12.0000000000000000 147
5.8949578613447118  -2.2124030336119840 4.9246548657421387 0.0000000000000000 12.0000000000000000 148
5.9346484015298042  -2.2135897255822341 4.9293742513133392 0.0000000000000000 12.0000000000000000 149
5.9743395764705047  -2.2147553148012982 4.9340179754983335 0.0000000000000000 12.0000000000000000 150
6.0140313650264483  -2.2159003952371066 4.9385880422581208 0.0000000000000000 12.0000000000000000 151
6.0537237464799825  -2.2170255418022315 4.9430863963842384 0.0000000000000000 12.0000000000000000 152
6.0934167005278894  -2.2181313110410414 4.9475149254274200 0.0000000000000000 12.0000000000000000 153
6.1331102072731252  -2.2192182417901716 4.9518754615612464 0.0000000000000000 12.0000000000000000 154
6.1728042472165727  -2.2202868558134679 4.9561697833828564 0.0000000000000000 12.0000000000000000 155
6.2124988012488433  -2.2213376584123314 4.9603996176526284 0.0000000000000000 12.0000000000000000 156
6.2521938506421142  -2.2223711390125160 4.9645666409748070 0.0000000000000000 12.0000000000000000 157
6.2918893770420370  -2.2233877717282580 4.9686724814210077 0.0000000000000000 12.0000000000000000 158
6.3315853624597276  -2.2243880159047058 4.9727187200983618 0.0000000000000000 12.0000000000000000 159
6.3712817892638176  -2.2253723166394490 4.9767068926641942 0.0000000000000000 12.0000000000000000 160
6.4109786401726172  -2.2263411052840545 4.9806384907889623 0.0000000000000000 12.0000000000000000 161
6.4506758982463683  -2.2272947999263422 4.9845149635691488 0.0000000000000000 12.0000000000000000 162
6.4903735468796047  -2.2282338058542042 4.9883377188918105 0.0000000000000000 12.0000000000000000 163
6.5300715697936216  -2.2291585160017142 4.9921081247523738 0.0000000000000000 12.0000000000000000 164
6.5697699510290706  -2.2300693113782071 4.9958275105273424 0.0000000000000000 12.0000000000000000 165
6.6094686749386575  -2.2309665614810288 4.9994971682032796 0.0000000000000000 12.0000000000000000 166
6.6491677261799866  -2.2318506246925889 5.0031183535637380 0.0000000000000000 12.0000000000000000 167
6.6888670897085198  -2.2327218486623885 5.0066922873354702 0.0000000000000000 12.0000000000000000 168
6.7285667507706650  -2.2335805706745466 5.0102201562953192 0.0000000000000000 12.0000000000000000 169
6.7682666948969974  -2.2344271180014768 5.0137031143392328 0.0000000000000000 12.0000000000000000 170
6.8079669078956320  -2.2352618082442324 5.0171422835146062 0.0000000000000000 12.0000000000000000 171
6.8476673758456945  -2.2360849496600443 5.0205387550172915 0.0000000000000000 12.0000000000000000 172
6.8873680850909693  -2.2368968414775727 5.0238935901545059 0.0000000000000000 12.0000000000000000 173
6.9270690222336535  -2.2376977742003761 5.0272078212747946 0.0000000000000000 12.0000000000000000 174
6.9667701741282588  -2.2384880298990182 5.0304824526662237 0.0000000000000000 12.0000000000000000 175
7.0064715278756466  -2.2392678824923302 5.0337184614239661 0.0000000000000000 12.0000000000000000 176
7.0461730708172112  -2.2400375980181950 5.0369167982882281 0.0000000000000000 12.0000000000000000 177
7.0858747905291688  -2.2407974348942981 5.0400783884537166 0.0000000000000000 12.0000000000000000 178
7.1255766748170108  -2.2415476441692559 5.0432041323515495 0.0000000000000000 12.0000000000000000 179
7.1652787117100782  -2.2422884697644649 5.0462949064046132 0.0000000000000000 12.0000000000000000 180
7.2049808894562553  -2.2430201487070711 5.0493515637573152 0.0000000000000000 12.0000000000000000 181
7.2446831965168164  -2.2437429113543814 5.0523749349806195 0.0000000000000000 12.0000000000000000 182
7.2843856215613849  -2.2444569816100839 5.0553658287532848 0.0000000000000000 12.0000000000000000 183
7.3240881534630189  -2.2451625771325592 5.0583250325200586 0.0000000000000000 12.0000000000000000 184
7.3637907812934351  -2.2458599095356448 5.0612533131277768 0.0000000000000000 12.0000000000000000 185
7.4034934943183393  -2.2465491845820988 5.0641514174400504 0.0000000000000000 12.0000000000000000 186
7.4431962819928863  -2.2472306023700570 5.0670200729312871 0.0000000000000000 12.0000000000000000 187
7.4828991339572646  -2.2479043575127977 5.0698599882609159 0.0000000000000000 12.0000000000000000 188
7.5226020400323828  -2.2485706393120344 5.0726718538283873 0.0000000000000000 12.0000000000000000 189
7.5623049902156838  -2.2492296319249747 5.0754563423096410 0.0000000000000000 12.0000000000000000 190
7.6020079746770648  -2.2498815145254416 5.0782141091757937 0.0000000000000000 12.0000000000000000 191
7.6417109837549120  -2.2505264614592462 5.0809457931945863 0.0000000000000000 12.0000000000000000 192
7.6814140079522426  -2.2511646423940332 5.0836520169152326 0.0000000000000000 12.0000000000000000 193
7.7211170379329470  -2.2517962224638346 5.0863333871372793 0.0000000000000000 12.0000000000000000 194
7.7608200645181373  -2.2524213624085343 5.0889904953640279 0.0000000000000000 12.0000000000000000 195
