 # inv_tmp, energy, phys_var, phys_doublon, phys_num, step_i
0.0000000000000000  0.0360790732901751 1.1225698417801711 0.0000000000000000 12.0000000000000000 0
0.0416573990585182  -0.0106786597622452 1.1224379901120032 0.0000000000000000 12.0000000000000000 1
0.0832337632912472  -0.0574209531222473 1.1253422791612491 0.0000000000000000 12.0000000000000000 2
0.1247295128094382  -0.1040923263029265 1.1312680820098704 0.0000000000000000 12.0000000000000000 3
0.1661452556031060  -0.1506376511328189 1.1401883459095712 0.0000000000000000 12.0000000000000000 4
0.2074817827671432  -0.1970024868303893 1.1520638661176443 0.0000000000000000 12.0000000000000000 5
0.2487400621149411  -0.2431334058881122 1.1668436838787943 0.0000000000000000 12.0000000000000000 6
0.2899212302907897  -0.2889783061352969 1.1844656009598364 0.0000000000000000 12.0000000000000000 7
0.3310265835190015  -0.3344867046956438 1.2048568009669411 0.0000000000000000 12.0000000000000000 8
0.3720575671502356  -0.3796100100059438 1.2279345657993801 0.0000000000000000 12.0000000000000000 9
0.4130157641832877  -0.4243017685988931 1.2536070740714891 0.0000000000000000 12.0000000000000000 10
0.4539028829532807  -0.4685178839553927 1.2817742672014858 0.0000000000000000 12.0000000000000000 11
0.4947207441845748  -0.5122168053779187 1.3123287681412292 0.0000000000000000 12.0000000000000000 12
0.5354712676088415  -0.5553596855038697 1.3451568374071290 0.0000000000000000 12.0000000000000000 13
0.5761564583458889  -0.5979105057441291 1.3801393511557924 0.0000000000000000 12.0000000000000000 14
0.6167783932373622  -0.6398361695766271 1.4171527865008777 0.0000000000000000 12.0000000000000000 15
0.6573392073119729  -0.6811065642290333 1.4560702000500032 0.0000000000000000 12.0000000000000000 16
0.6978410805460561  -0.7216945918334619 1.4967621867040235 0.0000000000000000 12.0000000000000000 17
0.7382862250657664  -0.7615761716170861 1.5390978070501775 0.0000000000000000 12.0000000000000000 18
0.7786768729178580  -0.8007302150973020 1.5829454731375758 0.0000000000000000 12.0000000000000000 19
0.8190152645154636  -0.8391385765738305 1.6281737839898254 0.0000000000000000 12.0000000000000000 20
0.8593036378443353  -0.8767859814511763 1.6746523038290171 0.0000000000000000 12.0000000000000000 21
0.8995442184942594  -0.9136599350849995 1.7222522776061533 0.0000000000000000 12.0000000000000000 22
0.9397392105603571  -0.9497506149292863 1.7708472800094495 0.0000000000000000 12.0000000000000000 23
0.9798907884402088  -0.9850507487742067 1.8203137956152866 0.0000000000000000 12.0000000000000000 24
1.0200010895355560  -1.0195554818150572 1.8705317292256227 0.0000000000000000 12.0000000000000000 25
1.0600722078519822  -1.0532622351898793 1.9213848466778212 0.0000000000000000 12.0000000000000000 26
1.1001061884766423  -1.0861705584765320 1.9727611475020492 0.0000000000000000 12.0000000000000000 27
1.1401050229028564  -1.1182819784590401 2.0245531717298415 0.0000000000000000 12.0000000000000000 28
1.1800706451612155  -1.1495998462670944 2.0766582439228896 0.0000000000000000 12.0000000000000000 29
1.2200049287097063  -1.1801291847704318 2.1289786580966883 0.0000000000000000 12.0000000000000000 30
1.2599096840301018  -1.2098765378794352 2.1814218076677476 0.0000000000000000 12.0000000000000000 31
1.2997866568743868  -1.2388498231714427 2.2339002648659867 0.0000000000000000 12.0000000000000000 32
1.3396375271030323  -1.2670581890349657 2.2863318142399027 0.0000000000000000 12.0000000000000000 33
1.3794639080563795  -1.2945118773058930 2.3386394449554841 0.0000000000000000 12.0000000000000000 34
1.4192673464009806  -1.3212220921646858 2.3907513065669610 0.0000000000000000 12.0000000000000000 35
1.4590493223943097  -1.3472008758741010 2.4426006328334751 0.0000000000000000 12.0000000000000000 36
1.4988112505135744  -1.3724609917650192 2.4941256379864249 0.0000000000000000 12.0000000000000000 37
1.5385544803972835  -1.3970158147245881 2.5452693896316472 0.0000000000000000 12.0000000000000000 38
1.5782802980515678  -1.4208792293062482 2.5959796622119504 0.0000000000000000 12.0000000000000000 39
1.6179899272768650  -1.4440655354652716 2.6462087746707632 0.0000000000000000 12.0000000000000000 40
1.6576845312743824  -1.4665893618254620 2.6959134156569995 0.0000000000000000 12.0000000000000000 41
1.6973652143955569  -1.4884655863016207 2.7450544593035340 0.0000000000000000 12.0000000000000000 42
1.7370330240015426  -1.5097092638370206 2.7935967743042980 0.0000000000000000 12.0000000000000000 43
1.7766889524034353  -1.5303355609641369 2.8415090287139475 0.0000000000000000 12.0000000000000000 44
1.8163339388574762  -1.5503596968586444 2.8887634926040109 0.0000000000000000 12.0000000000000000 45
1.8559688715927845  -1.5697968905297432 2.9353358404337460 0.0000000000000000 12.0000000000000000 46
1.8955945898522899  -1.5886623137728686 2.9812049547356736 0.0000000000000000 12.0000000000000000 47
1.9352118859303700  -1.6069710495019800 3.0263527324758019 0.0000000000000000 12.0000000000000000 48
1.9748215071932989  -1.6247380550770922 3.0707638952286658 0.0000000000000000 12.0000000000000000 49
2.0144241580709763  -1.6419781302466918 3.1144258041069834 0.0000000000000000 12.0000000000000000 50
2.0540205020104856  -1.6587058893335729 3.1573282802056317 0.0000000000000000 12.0000000000000000 51
2.0936111633839074  -1.6749357373050213 3.1994634311583825 0.0000000000000000 12.0000000000000000 52
2.1331967293444380  -1.6906818493835498 3.2408254842634010 0.0000000000000000 12.0000000000000000 53
2.1727777516263003  -1.7059581538715596 3.2814106265080558 0.0000000000000000 12.0000000000000000 54
2.2123547482851582  -1.7207783178820044 3.3212168517146647 0.0000000000000000 12.0000000000000000 55
2.2519282053768004  -1.7351557356864304 3.3602438149346998 0.0000000000000000 12.0000000000000000 56
2.2914985785727469  -1.7491035194115416 3.3984926941384339 0.0000000000000000 12.0000000000000000 57
2.3310662947122078  -1.7626344918351138 3.4359660591790591 0.0000000000000000 12.0000000000000000 58
2.3706317532903958  -1.7757611810514426 3.4726677479533565 0.0000000000000000 12.0000000000000000 59
2.4101953278837578  -1.7884958167952780 3.5086027496339400 0.0000000000000000 12.0000000000000000 60
2.4497573675130666  -1.8008503282312300 3.5437770948099034 0.0000000000000000 12.0000000000000000 61
2.4893181979456509  -1.8128363430327845 3.5781977523421848 0.0000000000000000 12.0000000000000000 62
2.5288781229382900  -1.8244651875912732 3.6118725327162533 0.0000000000000000 12.0000000000000000 63
2.5684374254225064  -1.8357478882103067 3.6448099976567470 0.0000000000000000 12.0000000000000000 64
2.6079963686341001  -1.8466951731553265 3.6770193757558229 0.0000000000000000 12.0000000000000000 65
2.6475551971888818  -1.8573174754410497 3.7085104838584915 0.0000000000000000 12.0000000000000000 66
2.6871141381066193  -1.8676249362516413 3.7392936539432049 0.0000000000000000 12.0000000000000000 67
2.7266734017852214  -1.8776274088995741 3.7693796652341258 0.0000000000000000 12.0000000000000000 68
2.7662331829271989  -1.8873344632392277 3.7987796812822405 0.0000000000000000 12.0000000000000000 69
2.8057936614204300  -1.8967553904605892 3.8275051917552969 0.0000000000000000 12.0000000000000000 70
2.8453550031752055  -1.9058992081966946 3.8555679586810374 0.0000000000000000 12.0000000000000000 71
2.8849173609195029  -1.9147746658861728 3.8829799668941369 0.0000000000000000 12.0000000000000000 72
2.9244808749543743  -1.9233902503389739 3.9097533784441758 0.0000000000000000 12.0000000000000000 73
2.9640456738712810  -1.9317541914595926 3.9359004907299067 0.0000000000000000 12.0000000000000000 74
3.0036118752331329  -1.9398744680876530 3.9614336981334120 0.0000000000000000 12.0000000000000000 75
3.0431795862207363  -1.9477588139205855 3.9863654569365674 0.0000000000000000 12.0000000000000000 76
3.0827489042462801  -1.9554147234876349 4.0107082533115186 0.0000000000000000 12.0000000000000000 77
3.1223199175354104  -1.9628494581483904 4.0344745741860386 0.0000000000000000 12.0000000000000000 78
3.1618927056794046  -1.9700700520924599 4.0576768807939905 0.0000000000000000 12.0000000000000000 79
3.2014673401588563  -1.9770833183201666 4.0803275847305116 0.0000000000000000 12.0000000000000000 80
3.2410438848402414  -1.9838958545867817 4.1024390263405248 0.0000000000000000 12.0000000000000000 81
3.2806223964466605  -1.9905140492954163 4.1240234552784152 0.0000000000000000 12.0000000000000000 82
3.3202029250039953  -1.9969440873257018 4.1450930130853134 0.0000000000000000 12.0000000000000000 83
3.3597855142636601  -2.0031919557874933 4.1656597176391177 0.0000000000000000 12.0000000000000000 84
3.3993702021030767  -2.0092634496903714 4.1857354493405046 0.0000000000000000 12.0000000000000000 85
3.4389570209049380  -2.0151641775212954 4.2053319389062391 0.0000000000000000 12.0000000000000000 86
3.4785459979162749  -2.0208995667240801 4.2244607566487886 0.0000000000000000 12.0000000000000000 87
3.5181371555883243  -2.0264748690754759 4.2431333031284098 0.0000000000000000 12.0000000000000000 88
3.5577305118980895  -2.0318951659537077 4.2613608010710857 0.0000000000000000 12.0000000000000000 89
3.5973260806525005  -2.0371653734961739 4.2791542884522284 0.0000000000000000 12.0000000000000000 90
3.6369238717760179  -2.0422902476438081 4.2965246126525329 0.0000000000000000 12.0000000000000000 91
3.6765238915824616  -2.0472743890703042 4.3134824255983473 0.0000000000000000 12.0000000000000000 92
3.7161261430318469  -2.0521222479949648 4.3300381798046983 0.0000000000000000 12.0000000000000000 93
3.7557306259729617  -2.0568381288784834 4.3462021252445586 0.0000000000000000 12.0000000000000000 94
3.7953373373723664  -2.0614261950014332 4.3619843069730155 0.0000000000000000 12.0000000000000000 95
3.8349462715304932  -2.0658904729255760 4.3773945634400002 0.0000000000000000 12.0000000000000000 96
3.8745574202854725  -2.0702348568385238 4.3924425254296038 0.0000000000000000 12.0000000000000000 97
3.9141707732052957  -2.0744631127825088 4.4071376155685993 0.0000000000000000 12.0000000000000000 98
3.9537863177689014  -2.0785788827683196 4.4214890483505966 0.0000000000000000 12.0000000000000000 99
3.9934040395367081  -2.0825856887756515 4.4355058306262594 0.0000000000000000 12.0000000000000000 100
4.0330239223111617  -2.0864869366413332 4.4491967625135223 0.0000000000000000 12.0000000000000000 101
4.0726459482877670  -2.0902859198370232 4.4625704386851863 0.0000000000000000 12.0000000000000000 102
4.1122700981970945  -2.0939858231381101 4.4756352499943564 0.0000000000000000 12.0000000000000000 103
4.1518963514382357  -2.0975897261856824 4.4883993854012179 0.0000000000000000 12.0000000000000000 104
4.1915246862041204  -2.1011006069435179 4.5008708341674275 0.0000000000000000 12.0000000000000000 105
4.2311550795991284  -2.1045213450520741 4.5130573882869411 0.0000000000000000 12.0000000000000000 106
4.2707875077493931  -2.1078547250816153 4.5249666451245929 0.0000000000000000 12.0000000000000000 107
4.3104219459061870  -2.1111034396865662 4.5366060102359729 0.0000000000000000 12.0000000000000000 108
4.3500583685427188  -2.1142700926632871 4.5479827003443232 0.0000000000000000 12.0000000000000000 109
4.3896967494447345  -2.1173572019134164 4.5591037464520232 0.0000000000000000 12.0000000000000000 110
4.4293370617952252  -2.1203672023150748 4.5699759970663330 0.0000000000000000 12.0000000000000000 111
4.4689792782535509  -2.1233024485040364 4.5806061215204208 0.0000000000000000 12.0000000000000000 112
4.5086233710293095  -2.1261652175672063 4.5910006133727084 0.0000000000000000 12.0000000000000000 113
4.5482693119512110  -2.1289577116505032 4.6011657938686410 0.0000000000000000 12.0000000000000000 114
4.5879170725312379  -2.1316820604834610 4.6111078154507856 0.0000000000000000 12.0000000000000000 115
4.6275666240243529  -2.1343403238226570 4.6208326653040732 0.0000000000000000 12.0000000000000000 116
4.6672179374840148  -2.1369344938161978 4.6303461689244783 0.0000000000000000 12.0000000000000000 117
4.7068709838137037  -2.1394664972913620 4.6396539937003078 0.0000000000000000 12.0000000000000000 118
4.7465257338147113  -2.1419381979675842 4.6487616524965363 0.0000000000000000 12.0000000000000000 119
4.7861821582304067  -2.1443513985968155 4.6576745072333408 0.0000000000000000 12.0000000000000000 120
4.8258402277871548  -2.1467078430333624 4.6663977724509502 0.0000000000000000 12.0000000000000000 121
4.8654999132321120  -2.1490092182352436 4.6749365188539000 0.0000000000000000 12.0000000000000000 122
4.9051611853680681  -2.1512571561990144 4.6832956768281875 0.0000000000000000 12.0000000000000000 123
4.9448240150854961  -2.1534532358300882 4.6914800399258620 0.0000000000000000 12.0000000000000000 124
4.9844883733919980  -2.1555989847504220 4.6994942683119927 0.0000000000000000 12.0000000000000000 125
5.0241542314392955  -2.1576958810454805 4.7073428921696543 0.0000000000000000 12.0000000000000000 126
5.0638215605479004  -2.1597453549523311 4.7150303150590638 0.0000000000000000 12.0000000000000000 127
5.1034903322296241  -2.1617487904906323 4.7225608172274676 0.0000000000000000 12.0000000000000000 128
5.1431605182080560  -2.1637075270383614 4.7299385588669942 0.0000000000000000 12.0000000000000000 129
5.1828320904371266  -2.1656228608539179 4.7371675833178220 0.0000000000000000 12.0000000000000000 130
5.2225050211178834  -2.1674960465463671 4.7442518202147212 0.0000000000000000 12.0000000000000000 131
5.2621792827136069  -2.1693282984954037 4.7511950885750602 0.0000000000000000 12.0000000000000000 132
5.3018548479633356  -2.1711207922226969 4.7580010998269726 0.0000000000000000 12.0000000000000000 133
5.3415316898939507  -2.1728746657161149 4.7646734607764492 0.0000000000000000 12.0000000000000000 134
5.3812097818308793  -2.1745910207084265 4.7712156765124760 0.0000000000000000 12.0000000000000000 135
5.4208890974075210  -2.1762709239118947 4.7776311532496605 0.0000000000000000 12.0000000000000000 136
5.4605696105734856  -2.1779154082102501 4.7839232011078101 0.0000000000000000 12.0000000000000000 137
5.5002512956017249  -2.1795254738094152 4.7900950368282764 0.0000000000000000 12.0000000000000000 138
5.5399341270946181  -2.1811020893483613 4.7961497864270441 0.0000000000000000 12.0000000000000000 139
5.5796180799891077  -2.1826461929714371 4.8020904877846489 0.0000000000000000 12.0000000000000000 140
5.6193031295609410  -2.1841586933634232 4.8079200931731618 0.0000000000000000 12.0000000000000000 141
5.6589892514280775  -2.1856404707485608 4.8136414717206151 0.0000000000000000 12.0000000000000000 142
5.6986764215533254  -2.1870923778548357 4.8192574118134202 0.0000000000000000 12.0000000000000000 143
5.7383646162462840  -2.1885152408445965 4.8247706234373338 0.0000000000000000 12.0000000000000000 144
5.7780538121646039  -2.1899098602127269 4.8301837404576027 0.0000000000000000 12.0000000000000000 145
5.8177439863146594  -2.1912770116534399 4.8354993228392118 0.0000000000000000 12.0000000000000000 146
5.8574351160516516  -2.1926174468967790 4.8407198588078710 0.0000000000000000 12.0000000000000000 147
5.8971271790792041  -2.1939318945158677 4.8458477669527991 0.0000000000000000 12.0000000000000000 148
5.9368201534484699  -2.1952210607059182 4.8508853982721707 0.0000000000000000 12.0000000000000000 149
5.9765140175568323  -2.1964856300359563 4.8558350381622208 0.0000000000000000 12.0000000000000000 150
6.0162087501461761  -2.1977262661742398 4.8606989083510594 0.0000000000000000 12.0000000000000000 151
6.0559043303008213  -2.1989436125882560 4.8654791687782435 0.0000000000000000 12.0000000000000000 152
6.0956007374451193  -2.2001382932202000 4.8701779194211916 0.0000000000000000 12.0000000000000000 153
6.1352979513407426  -2.2013109131387818 4.8747972020695585 0.0000000000000000 12.0000000000000000 154
6.1749959520837159  -2.2024620591681998 4.8793390020486065 0.0000000000000000 12.0000000000000000 155
6.2146947201012006  -2.2035923004950679 4.8838052498928715 0.0000000000000000 12.0000000000000000 156
6.2543942361480456  -2.2047021892541014 4.8881978229710779 0.0000000000000000 12.0000000000000000 157
6.2940944813031612  -2.2057922610932557 4.8925185470635588 0.0000000000000000 12.0000000000000000 158
6.3337954369657083  -2.2068630357191159 4.8967691978932706 0.0000000000000000 12.0000000000000000 159
6.3734970848511354  -2.2079150174231561 4.9009515026115533 0.0000000000000000 12.0000000000000000 160
6.4131994069870766  -2.2089486955896249 4.9050671412397673 0.0000000000000000 12.0000000000000000 161
6.4529023857091454  -2.2099645451856298 4.9091177480679100 0.0000000000000000 12.0000000000000000 162
6.4926060036566025  -2.2109630272341319 4.9131049130113817 0.0000000000000000 12.0000000000000000 163
6.5323102437679559  -2.2119445892703915 4.9170301829269194 0.0000000000000000 12.0000000000000000 164
6.5720150892764924  -2.2129096657824916 4.9208950628888548 0.0000000000000000 12.0000000000000000 165
6.6117205237057304  -2.2138586786364920 4.9247010174267318 0.0000000000000000 12.0000000000000000 166
6.6514265308648373  -2.2147920374867822 4.9284494717253926 0.0000000000000000 12.0000000000000000 167
6.6911330948440177  -2.2157101401721198 4.9321418127884691 0.0000000000000000 12.0000000000000000 168
6.7308402000098564  -2.2166133730979145 4.9357793905664487 0.0000000000000000 12.0000000000000000 169
6.7705478310006617  -2.2175021116052314 4.9393635190501941 0.0000000000000000 12.0000000000000000 170
6.8102559727218015  -2.2183767203269422 4.9428954773309499 0.0000000000000000 12.0000000000000000 171
6.8499646103410177  -2.2192375535315909 4.9463765106278510 0.0000000000000000 12.0000000000000000 172
6.8896737292837793  -2.2200849554553010 4.9498078312837750 0.0000000000000000 12.0000000000000000 173
6.9293833152286348  -2.2209192606222223 4.9531906197305613 0.0000000000000000 12.0000000000000000 174
6.9690933541025730  -2.2217407941538978 4.9565260254244423 0.0000000000000000 12.0000000000000000 175
7.0088038320764383  -2.2225498720679666 4.9598151677526348 0.0000000000000000 12.0000000000000000 176
7.0485147355603539  -2.2233468015665756 4.9630591369118537 0.0000000000000000 12.0000000000000000 177
7.0882260511991957  -2.2241318813148534 4.9662589947596771 0.0000000000000000 12.0000000000000000 178
7.1279377658680918  -2.2249054017098460 4.9694157756396002 0.0000000000000000 12.0000000000000000 179
7.1676498666679915  -2.2256676451401991 4.9725304871804941 0.0000000000000000 12.0000000000000000 180
7.2073623409212466  -2.2264188862369734 4.9756041110712843 0.0000000000000000 12.0000000000000000 181
7.2470751761672760  -2.2271593921158708 4.9786376038116904 0.0000000000000000 12.0000000000000000 182
7.2867883601582717  -2.2278894226111960 4.9816318974396214 0.0000000000000000 12.0000000000000000 183
7.3265018808549485  -2.2286092305018466 4.9845879002360709 0.0000000000000000 12.0000000000000000 184
7.3662157264223751  -2.2293190617296315 4.9875064974081722 0.0000000000000000 12.0000000000000000 185
7.4059298852258459  -2.2300191556101625 4.9903885517510513 0.0000000000000000 12.0000000000000000 186
7.4456443458268229  -2.2307097450365996 4.9932349042892090 0.0000000000000000 12.0000000000000000 187
7.4853590969789368  -2.2313910566765198 4.9960463748980635 0.0000000000000000 12.0000000000000000 188
7.5250741276240607  -2.2320633111621371 4.9988237629061860 0.0000000000000000 12.0000000000000000 189
7.5647894268884341  -2.2327267232741050 5.0015678476789853 0.0000000000000000 12.0000000000000000 190
7.6045049840788597  -2.2333815021191610 5.0042793891843385 0.0000000000000000 12.0000000000000000 191
7.6442207886789815  -2.2340278513017835 5.0069591285407062 0.0000000000000000 12.0000000000000000 192
7.6839368303455888  -2.2346659690901460 5.0096077885484345 0.0000000000000000 12.0000000000000000 193
7.7236530989050429  -2.2352960485764792 5.0122260742045386 0.0000000000000000 12.0000000000000000 194
7.7633695843497170  -2.2359182778321309 5.0148146732018013 0.0000000000000000 12.0000000000000000 195
