 # inv_tmp, energy, phys_var, phys_doublon, phys_num, step_i
0.0000000000000000  -0.0431948460676188 1.1044355595109649 0.0000000000000000 12.0000000000000000 0
0.0415895038688656  -0.0890564673752328 1.1076458416872703 0.0000000000000000 12.0000000000000000 1
0.0831000592292445  -0.1347430687789908 1.1138074059588940 0.0000000000000000 12.0000000000000000 2
0.1245324706954048  -0.1802052628945264 1.1228836873255981 0.0000000000000000 12.0000000000000000 3
0.1658877025203862  -0.2253951224435623 1.1348271403926946 0.0000000000000000 12.0000000000000000 4
0.2071668698397967  -0.2702664172753836 1.1495797768392424 0.0000000000000000 12.0000000000000000 5
0.2483712289364672  -0.3147748287285382 1.1670737899585752 0.0000000000000000 12.0000000000000000 6
0.2895021666894862  -0.3588781392993866 1.1872322545536318 0.0000000000000000 12.0000000000000000 7
0.3305611893776763  -0.4025363961269712 1.2099698895975817 0.0000000000000000 12.0000000000000000 8
0.3715499110097817  -0.4457120473543016 1.2351938705432013 0.0000000000000000 12.0000000000000000 9
0.4124700413517182  -0.4883700509675576 1.2628046779770650 0.0000000000000000 12.0000000000000000 10
0.4533233738155494  -0.5304779562314634 1.2926969694495594 0.0000000000000000 12.0000000000000000 11
0.4941117733658301  -0.5720059583176541 1.3247604617414097 0.0000000000000000 12.0000000000000000 12
0.5348371645871399  -0.6129269271523742 1.3588808115162903 0.0000000000000000 12.0000000000000000 13
0.5755015200426087  -0.6532164118818488 1.3949404832151888 0.0000000000000000 12.0000000000000000 14
0.6161068490375788  -0.6928526226628211 1.4328195941264867 0.0000000000000000 12.0000000000000000 15
0.6566551868858949  -0.7318163917291201 1.4723967277696670 0.0000000000000000 12.0000000000000000 16
0.6971485847591830  -0.7700911158625847 1.5135497080140126 0.0000000000000000 12.0000000000000000 17
0.7375891001824250  -0.8076626825101707 1.5561563276736627 0.0000000000000000 12.0000000000000000 18
0.7779787882225760  -0.8445193818425571 1.6000950266372083 0.0000000000000000 12.0000000000000000 19
0.8183196934013081  -0.8806518070484701 1.6452455158693227 0.0000000000000000 12.0000000000000000 20
0.8586138423484875  -0.9160527451097960 1.6914893448349257 0.0000000000000000 12.0000000000000000 21
0.8988632371999207  -0.9507170602125128 1.7387104110200422 0.0000000000000000 12.0000000000000000 22
0.9390698497313937  -0.9846415718251310 1.7867954112410251 0.0000000000000000 12.0000000000000000 23
0.9792356162111506  -1.0178249293271755 1.8356342353339001 0.0000000000000000 12.0000000000000000 24
1.0193624329447299  -1.0502674849025098 1.8851203035920725 0.0000000000000000 12.0000000000000000 25
1.0594521524794585  -1.0819711662327469 1.9351508499721670 0.0000000000000000 12.0000000000000000 26
1.0995065804308350  -1.1129393503406106 1.9856271536167966 0.0000000000000000 12.0000000000000000 27
1.1395274728893710  -1.1431767397473389 2.0364547216550841 0.0000000000000000 12.0000000000000000 28
1.1795165343641041  -1.1726892419263168 2.0875434265448454 0.0000000000000000 12.0000000000000000 29
1.2194754162177786  -1.2014838528610174 2.1388076014243125 0.0000000000000000 12.0000000000000000 30
1.2594057155484526  -1.2295685453515011 2.1901660970568204 0.0000000000000000 12.0000000000000000 31
1.2993089744729023  -1.2569521625625906 2.2415423039905766 0.0000000000000000 12.0000000000000000 32
1.3391866797684628  -1.2836443171694372 2.2928641435286989 0.0000000000000000 12.0000000000000000 33
1.3790402628317733  -1.3096552963335770 2.3440640310235628 0.0000000000000000 12.0000000000000000 34
1.4188710999151128  -1.3349959726347991 2.3950788148844970 0.0000000000000000 12.0000000000000000 35
1.4586805126035247  -1.3596777209910431 2.4458496945288726 0.0000000000000000 12.0000000000000000 36
1.4984697684986306  -1.3837123415197095 2.4963221203223984 0.0000000000000000 12.0000000000000000 37
1.5382400820778157  -1.4071119882282110 2.5464456783529306 0.0000000000000000 12.0000000000000000 38
1.5779926157002937  -1.4298891033685555 2.5961739626698002 0.0000000000000000 12.0000000000000000 39
1.6177284807343175  -1.4520563572488312 2.6454644374035596 0.0000000000000000 12.0000000000000000 40
1.6574487387824983  -1.4736265932629795 2.6942782909639615 0.0000000000000000 12.0000000000000000 41
1.6971544029847550  -1.4946127778773164 2.7425802843003178 0.0000000000000000 12.0000000000000000 42
1.7368464393808167  -1.5150279552974619 2.7903385950018587 0.0000000000000000 12.0000000000000000 43
1.7765257683164593  -1.5348852065309471 2.8375246588180629 0.0000000000000000 12.0000000000000000 44
1.8161932658797013  -1.5541976125581016 2.8841130099920282 0.0000000000000000 12.0000000000000000 45
1.8558497653550869  -1.5729782213256320 2.9300811216250437 0.0000000000000000 12.0000000000000000 46
1.8954960586858618  -1.5912400182829958 2.9754092471280313 0.0000000000000000 12.0000000000000000 47
1.9351328979353943  -1.6089959001901140 3.0200802636659132 0.0000000000000000 12.0000000000000000 48
1.9747609967405293  -1.6262586519357640 3.0640795183640703 0.0000000000000000 12.0000000000000000 49
2.0143810317507738  -1.6430409261182766 3.1073946779217021 0.0000000000000000 12.0000000000000000 50
2.0539936440482505  -1.6593552251537138 3.1500155821648415 0.0000000000000000 12.0000000000000000 51
2.0935994405442915  -1.6752138856906633 3.1919341019707477 0.0000000000000000 12.0000000000000000 52
2.1331989953493005  -1.6906290651252909 3.2331440019058735 0.0000000000000000 12.0000000000000000 53
2.1727928511132246  -1.7056127300246195 3.2736408078396533 0.0000000000000000 12.0000000000000000 54
2.2123815203345565  -1.7201766462801535 3.3134216797261775 0.0000000000000000 12.0000000000000000 55
2.2519654866362497  -1.7343323708277083 3.3524852896840347 0.0000000000000000 12.0000000000000000 56
2.2915452060074006  -1.7480912447824679 3.3908317054510086 0.0000000000000000 12.0000000000000000 57
2.3311211080098593  -1.7614643878508405 3.4284622792435835 0.0000000000000000 12.0000000000000000 58
2.3706935969492480  -1.7744626938924331 3.4653795420112132 0.0000000000000000 12.0000000000000000 59
2.4102630530101079  -1.7870968275165959 3.5015871030411256 0.0000000000000000 12.0000000000000000 60
2.4498298333550963  -1.7993772216082065 3.5370895548404739 0.0000000000000000 12.0000000000000000 61
2.4893942731883243  -1.8113140756869237 3.5718923831982328 0.0000000000000000 12.0000000000000000 62
2.5289566867830673  -1.8229173550128988 3.6060018823094149 0.0000000000000000 12.0000000000000000 63
2.5685173684741827  -1.8341967903599841 3.6394250748274470 0.0000000000000000 12.0000000000000000 64
2.6080765936156789  -1.8451618783848385 3.6721696366976433 0.0000000000000000 12.0000000000000000 65
2.6476346195039264  -1.8558218825270387 3.7042438266143369 0.0000000000000000 12.0000000000000000 66
2.6871916862671026  -1.8661858343813762 3.7356564199364222 0.0000000000000000 12.0000000000000000 67
2.7267480177214583  -1.8762625354891296 3.7664166468906299 0.0000000000000000 12.0000000000000000 68
2.7663038221950784  -1.8860605594999982 3.7965341348879926 0.0000000000000000 12.0000000000000000 69
2.8058592933198212  -1.8955882546610394 3.8260188547771778 0.0000000000000000 12.0000000000000000 70
2.8454146107921314  -1.9048537465929432 3.8548810708575956 0.0000000000000000 12.0000000000000000 71
2.8849699411034693  -1.9138649413177506 3.8831312944758887 0.0000000000000000 12.0000000000000000 72
2.9245254382410923  -1.9226295285054156 3.9107802410310963 0.0000000000000000 12.0000000000000000 73
2.9640812443599387  -1.9311549849096625 3.9378387902163321 0.0000000000000000 12.0000000000000000 74
3.0036374904263812  -1.9394485779662924 3.9643179493279854 0.0000000000000000 12.0000000000000000 75
3.0431942968346117  -1.9475173695295336 3.9902288194774633 0.0000000000000000 12.0000000000000000 76
3.0827517739964287  -1.9553682197243347 4.0155825645448502 0.0000000000000000 12.0000000000000000 77
3.1223100229051939  -1.9630077908944341 4.0403903827184759 0.0000000000000000 12.0000000000000000 78
3.1618691356747415  -1.9704425516278909 4.0646634804696617 0.0000000000000000 12.0000000000000000 79
3.2014291960539829  -1.9776787808435015 4.0884130488171131 0.0000000000000000 12.0000000000000000 80
3.2409902799180008  -1.9847225719228985 4.1116502417409064 0.0000000000000000 12.0000000000000000 81
3.2805524557363723  -1.9915798368746311 4.1343861566115780 0.0000000000000000 12.0000000000000000 82
3.3201157850194827  -1.9982563105177695 4.1566318165056373 0.0000000000000000 12.0000000000000000 83
3.3596803227435728  -2.0047575546736285 4.1783981542841522 0.0000000000000000 12.0000000000000000 84
3.3992461177552702  -2.0110889623553847 4.1996959983171136 0.0000000000000000 12.0000000000000000 85
3.4388132131563198  -2.0172557619463074 4.2205360597414554 0.0000000000000000 12.0000000000000000 86
3.4783816466692374  -2.0232630213581118 4.2409289211464225 0.0000000000000000 12.0000000000000000 87
3.5179514509846119  -2.0291156521619271 4.2608850265852549 0.0000000000000000 12.0000000000000000 88
3.5575226540907225  -2.0348184136849987 4.2804146728173773 0.0000000000000000 12.0000000000000000 89
3.5970952795861857  -2.0403759170670144 4.2995280016905681 0.0000000000000000 12.0000000000000000 90
3.6366693469762863  -2.0457926292705579 4.3182349935774615 0.0000000000000000 12.0000000000000000 91
3.6762448719536565  -2.0510728770408058 4.3365454617855841 0.0000000000000000 12.0000000000000000 92
3.7158218666639438  -2.0562208508101545 4.3544690478649137 0.0000000000000000 12.0000000000000000 93
3.7554003399570988  -2.0612406085439297 4.3720152177411933 0.0000000000000000 12.0000000000000000 94
3.7949802976248961  -2.0661360795238575 4.3891932586078362 0.0000000000000000 12.0000000000000000 95
3.8345617426252794  -2.0709110680663829 4.4060122765132235 0.0000000000000000 12.0000000000000000 96
3.8741446752941191  -2.0755692571733455 4.4224811945841411 0.0000000000000000 12.0000000000000000 97
3.9137290935449474  -2.0801142121128797 4.4386087518299986 0.0000000000000000 12.0000000000000000 98
3.9533149930572113  -2.0845493839287963 4.4544035024760271 0.0000000000000000 12.0000000000000000 99
3.9929023674535755  -2.0888781128769627 4.4698738157770155 0.0000000000000000 12.0000000000000000 100
4.0324912084668068  -2.0931036317875584 4.4850278762665265 0.0000000000000000 12.0000000000000000 101
4.0720815060967084  -2.0972290693523230 4.4998736843995486 0.0000000000000000 12.0000000000000000 102
4.1116732487576098  -2.1012574533361374 4.5144190575494303 0.0000000000000000 12.0000000000000000 103
4.1512664234168621  -2.1051917137126237 4.5286716313228865 0.0000000000000000 12.0000000000000000 104
4.1908610157247939  -2.1090346857234783 4.5426388611592374 0.0000000000000000 12.0000000000000000 105
4.2304570101365480  -2.1127891128616363 4.5563280241827275 0.0000000000000000 12.0000000000000000 106
4.2700543900262309  -2.1164576497784111 4.5697462212789519 0.0000000000000000 12.0000000000000000 107
4.3096531377937488  -2.1200428651149932 4.5829003793687821 0.0000000000000000 12.0000000000000000 108
4.3492532349647330  -2.1235472442587535 4.5957972538548697 0.0000000000000000 12.0000000000000000 109
4.3888546622839169  -2.1269731920250345 4.6084434312182951 0.0000000000000000 12.0000000000000000 110
4.4284573998023067  -2.1303230352651528 4.6208453317442331 0.0000000000000000 12.0000000000000000 111
4.4680614269584904  -2.1335990254014541 4.6330092123574493 0.0000000000000000 12.0000000000000000 112
4.5076667226544069  -2.1368033408904079 4.6449411695500036 0.0000000000000000 12.0000000000000000 113
4.5472732653258836  -2.1399380896147240 4.6566471423849904 0.0000000000000000 12.0000000000000000 114
4.5868810330082290  -2.1430053112056413 4.6681329155615092 0.0000000000000000 12.0000000000000000 115
4.6264900033971665  -2.1460069792965477 4.6794041225274254 0.0000000000000000 12.0000000000000000 116
4.6661001539053855  -2.1489450037091502 4.6904662486275877 0.0000000000000000 12.0000000000000000 117
4.7057114617149480  -2.1518212325734631 4.7013246342763608 0.0000000000000000 12.0000000000000000 118
4.7453239038257937  -2.1546374543829776 4.7119844781443492 0.0000000000000000 12.0000000000000000 119
4.7849374571006038  -2.1573953999862980 4.7224508403501195 0.0000000000000000 12.0000000000000000 120
4.8245520983062029  -2.1600967445166588 4.7327286456487005 0.0000000000000000 12.0000000000000000 121
4.8641678041517293  -2.1627431092607221 4.7428226866093786 0.0000000000000000 12.0000000000000000 122
4.9037845513237732  -2.1653360634680521 4.7527376267761454 0.0000000000000000 12.0000000000000000 123
4.9434023165186698  -2.1678771261026850 4.7624780038048646 0.0000000000000000 12.0000000000000000 124
4.9830210764721059  -2.1703677675382638 4.7720482325717697 0.0000000000000000 12.0000000000000000 125
5.0226408079862459  -2.1728094111981116 4.7814526082487019 0.0000000000000000 12.0000000000000000 126
5.0622614879544967  -2.1752034351417064 4.7906953093408662 0.0000000000000000 12.0000000000000000 127
5.1018830933840933  -2.1775511735990150 4.7997804006835239 0.0000000000000000 12.0000000000000000 128
5.1415056014166414  -2.1798539184539925 4.8087118363944246 0.0000000000000000 12.0000000000000000 129
5.1811289893467301  -2.1821129206787955 4.8174934627793080 0.0000000000000000 12.0000000000000000 130
5.2207532346387779  -2.1843293917199800 4.8261290211880734 0.0000000000000000 12.0000000000000000 131
5.2603783149422094  -2.1865045048381235 4.8346221508197331 0.0000000000000000 12.0000000000000000 132
5.3000042081050784  -2.1886393964022068 4.8429763914744237 0.0000000000000000 12.0000000000000000 133
5.3396308921862490  -2.1907351671400952 4.8511951862512372 0.0000000000000000 12.0000000000000000 134
5.3792583454662442  -2.1927928833464230 4.8592818841907164 0.0000000000000000 12.0000000000000000 135
5.4188865464568394  -2.1948135780492195 4.8672397428613010 0.0000000000000000 12.0000000000000000 136
5.4585154739094941  -2.1967982521364715 4.8750719308890584 0.0000000000000000 12.0000000000000000 137
5.4981451068227303  -2.1987478754439329 4.8827815304303730 0.0000000000000000 12.0000000000000000 138
5.5377754244484976  -2.2006633878053652 4.8903715395873730 0.0000000000000000 12.0000000000000000 139
5.5774064062976301  -2.2025457000664233 4.8978448747661494 0.0000000000000000 12.0000000000000000 140
5.6170380321444542  -2.2043956950633277 4.9052043729777139 0.0000000000000000 12.0000000000000000 141
5.6566702820306105  -2.2062142285674735 4.9124527940821565 0.0000000000000000 12.0000000000000000 142
5.6963031362681535  -2.2080021301971238 4.9195928229762664 0.0000000000000000 12.0000000000000000 143
5.7359365754419915  -2.2097602042971918 4.9266270717251111 0.0000000000000000 12.0000000000000000 144
5.7755705804117090  -2.2114892307882550 4.9335580816382061 0.0000000000000000 12.0000000000000000 145
5.8152051323128395  -2.2131899659857650 4.9403883252908347 0.0000000000000000 12.0000000000000000 146
5.8548402125576171  -2.2148631433904895 4.9471202084913708 0.0000000000000000 12.0000000000000000 147
5.8944758028352604  -2.2165094744511697 4.9537560721953415 0.0000000000000000 12.0000000000000000 148
5.9341118851118386  -2.2181296493002813 4.9602981943670530 0.0000000000000000 12.0000000000000000 149
5.9737484416297377  -2.2197243374639064 4.9667487917897493 0.0000000000000000 12.0000000000000000 150
6.0133854549067802  -2.2212941885465134 4.9731100218251800 0.0000000000000000 12.0000000000000000 151
6.0530229077350244  -2.2228398328916104 4.9793839841235847 0.0000000000000000 12.0000000000000000 152
6.0926607831792765  -2.2243618822190241 4.9855727222850472 0.0000000000000000 12.0000000000000000 153
6.1322990645753430  -2.2258609302396768 4.9916782254733398 0.0000000000000000 12.0000000000000000 154
6.1719377355280445  -2.2273375532486255 4.9977024299831161 0.0000000000000000 12.0000000000000000 155
6.2115767799090378  -2.2287923106971390 5.0036472207617173 0.0000000000000000 12.0000000000000000 156
6.2512161818544438  -2.2302257457445505 5.0095144328864247 0.0000000000000000 12.0000000000000000 157
6.2908559257623029  -2.2316383857906104 5.0153058529984191 0.0000000000000000 12.0000000000000000 158
6.3304959962899137  -2.2330307429889982 5.0210232206943495 0.0000000000000000 12.0000000000000000 159
6.3701363783510265  -2.2344033147427291 5.0266682298766518 0.0000000000000000 12.0000000000000000 160
6.4097770571129313  -2.2357565841820519 5.0322425300636615 0.0000000000000000 12.0000000000000000 161
6.4494180179934721  -2.2370910206254702 5.0377477276605420 0.0000000000000000 12.0000000000000000 162
6.4890592466579609  -2.2384070800245386 5.0431853871920973 0.0000000000000000 12.0000000000000000 163
6.5287007290160419  -2.2397052053929438 5.0485570324984383 0.0000000000000000 12.0000000000000000 164
6.5683424512185082  -2.2409858272205239 5.0538641478946174 0.0000000000000000 12.0000000000000000 165
6.6079843996540610  -2.2422493638727063 5.0591081792951380 0.0000000000000000 12.0000000000000000 166
6.6476265609460583  -2.2434962219759074 5.0642905353043046 0.0000000000000000 12.0000000000000000 167
6.6872689219492356  -2.2447267967894411 5.0694125882735737 0.0000000000000000 12.0000000000000000 168
6.7269114697464110  -2.2459414725643541 5.0744756753265525 0.0000000000000000 12.0000000000000000 169
6.7665541916451870  -2.2471406228897743 5.0794810993528783 0.0000000000000000 12.0000000000000000 170
6.8061970751746719  -2.2483246110270798 5.0844301299717021 0.0000000000000000 12.0000000000000000 171
6.8458401080821805  -2.2494937902324894 5.0893240044657269 0.0000000000000000 12.0000000000000000 172
6.8854832783299766  -2.2506485040683626 5.0941639286867195 0.0000000000000000 12.0000000000000000 173
6.9251265740920340  -2.2517890867037265 5.0989510779332976 0.0000000000000000 12.0000000000000000 174
6.9647699837507968  -2.2529158632043602 5.1036865978018824 0.0000000000000000 12.0000000000000000 175
7.0044134958940090  -2.2540291498128449 5.1083716050115608 0.0000000000000000 12.0000000000000000 176
7.0440570993115434  -2.2551292542189194 5.1130071882037313 0.0000000000000000 12.0000000000000000 177
7.0837007829922891  -2.2562164758205547 5.1175944087173049 0.0000000000000000 12.0000000000000000 178
7.1233445361210626  -2.2572911059760221 5.1221343013401546 0.0000000000000000 12.0000000000000000 179
7.1629883480755812  -2.2583534282473230 5.1266278750376131 0.0000000000000000 12.0000000000000000 180
7.2026322084234549  -2.2594037186352844 5.1310761136587502 0.0000000000000000 12.0000000000000000 181
7.2422761069192445  -2.2604422458066380 5.1354799766210419 0.0000000000000000 12.0000000000000000 182
7.2819200335015664  -2.2614692713133389 5.1398403995742141 0.0000000000000000 12.0000000000000000 183
7.3215639782902340  -2.2624850498044990 5.1441582950438995 0.0000000000000000 12.0000000000000000 184
7.3612079315834569  -2.2634898292310437 5.1484345530556217 0.0000000000000000 12.0000000000000000 185
7.4008518838551005  -2.2644838510435541 5.1526700417399800 0.0000000000000000 12.0000000000000000 186
7.4404958257519773  -2.2654673503834042 5.1568656079194080 0.0000000000000000 12.0000000000000000 187
7.4801397480912053  -2.2664405562674528 5.1610220776771740 0.0000000000000000 12.0000000000000000 188
7.5197836418576207  -2.2674036917666216 5.1651402569092664 0.0000000000000000 12.0000000000000000 189
7.5594274982012273  -2.2683569741784471 5.1692209318596083 0.0000000000000000 12.0000000000000000 190
7.5990713084347190  -2.2693006151939334 5.1732648696391692 0.0000000000000000 12.0000000000000000 191
7.6387150640310377  -2.2702348210588634 5.1772728187295662 0.0000000000000000 12.0000000000000000 192
7.6783587566209972  -2.2711597927297671 5.1812455094715215 0.0000000000000000 12.0000000000000000 193
7.7180023779909446  -2.2720757260247773 5.1851836545388137 0.0000000000000000 12.0000000000000000 194
7.7576459200804830  -2.2729828117695132 5.1890879493980631 0.0000000000000000 12.0000000000000000 195
