 # inv_tmp, energy, phys_var, phys_doublon, phys_num, step_i
0.0000000000000000  0.0217087858661044 1.1068168279449060 0.0000000000000000 12.0000000000000000 0
0.0416455100913544  -0.0243847563100865 1.1053057615894493 0.0000000000000000 12.0000000000000000 1
0.0832113699385817  -0.0703538825571693 1.1068621549147446 0.0000000000000000 12.0000000000000000 2
0.1246982542810530  -0.1161507399839901 1.1114618597590671 0.0000000000000000 12.0000000000000000 3
0.1661069947579020  -0.1617285994479598 1.1190692666845561 0.0000000000000000 12.0000000000000000 4
0.2074385726538033  -0.2070420754828464 1.1296377334586678 0.0000000000000000 12.0000000000000000 5
0.2486941107005242  -0.2520473291396929 1.1431101059644266 0.0000000000000000 12.0000000000000000 6
0.2898748640643160  -0.2967022518163381 1.1594193218165647 0.0000000000000000 12.0000000000000000 7
0.3309822106567305  -0.3409666285478368 1.1784890859081043 0.0000000000000000 12.0000000000000000 8
0.3720176409106338  -0.3848022796423317 1.2002346063496820 0.0000000000000000 12.0000000000000000 9
0.4129827471641074  -0.4281731799623653 1.2245633787974124 0.0000000000000000 12.0000000000000000 10
0.4538792127927822  -0.4710455555585429 1.2513760069890116 0.0000000000000000 12.0000000000000000 11
0.4947088012261954  -0.5133879577503081 1.2805670474077884 0.0000000000000000 12.0000000000000000 12
0.5354733449763356  -0.5551713151081843 1.3120258663472248 0.0000000000000000 12.0000000000000000 13
0.5761747347970722  -0.5963689641156484 1.3456374982259161 0.0000000000000000 12.0000000000000000 14
0.6168149090820295  -0.6369566595711662 1.3812834947697255 0.0000000000000000 12.0000000000000000 15
0.6573958435961503  -0.6769125660279586 1.4188427555980552 0.0000000000000000 12.0000000000000000 16
0.6979195416230897  -0.7162172317588497 1.4581923317860483 0.0000000000000000 12.0000000000000000 17
0.7383880245971318  -0.7548535468756743 1.4992081950863421 0.0000000000000000 12.0000000000000000 18
0.7788033232748748  -0.7928066873285389 1.5417659666467249 0.0000000000000000 12.0000000000000000 19
0.8191674694888333  -0.8300640465621734 1.5857416002204709 0.0000000000000000 12.0000000000000000 20
0.8594824885126442  -0.8666151566183047 1.6310120160046868 0.0000000000000000 12.0000000000000000 21
0.8997503920559313  -0.9024516004487821 1.6774556823337370 0.0000000000000000 12.0000000000000000 22
0.9399731718963007  -0.9375669171489813 1.7249531434790204 0.0000000000000000 12.0000000000000000 23
0.9801527941464747  -0.9719565017399181 1.7733874927474067 0.0000000000000000 12.0000000000000000 24
1.0202911941463324  -1.0056175010257813 1.8226447909171060 0.0000000000000000 12.0000000000000000 25
1.0603902719626117  -1.0385487069363328 1.8726144307948229 0.0000000000000000 12.0000000000000000 26
1.1004518884732379  -1.0707504486355699 1.9231894493184969 0.0000000000000000 12.0000000000000000 27
1.1404778620086291  -1.1022244845435678 1.9742667891658368 0.0000000000000000 12.0000000000000000 28
1.1804699655188160  -1.1329738952816333 2.0257475122636568 0.0000000000000000 12.0000000000000000 29
1.2204299242327235  -1.1630029784148475 2.0775369679312616 0.0000000000000000 12.0000000000000000 30
1.2603594137743686  -1.1923171457339066 2.1295449186403648 0.0000000000000000 12.0000000000000000 31
1.3002600586999626  -1.2209228236919210 2.1816856265419253 0.0000000000000000 12.0000000000000000 32
1.3401334314198199  -1.2488273574934472 2.2338779040058152 0.0000000000000000 12.0000000000000000 33
1.3799810514694570  -1.2760389192235435 2.2860451314515911 0.0000000000000000 12.0000000000000000 34
1.4198043850952684  -1.3025664203051537 2.3381152457267880 0.0000000000000000 12.0000000000000000 35
1.4596048451214907  -1.3284194284837798 2.3900207022221709 0.0000000000000000 12.0000000000000000 36
1.4993837910668208  -1.3536080894595697 2.4416984138094611 0.0000000000000000 12.0000000000000000 37
1.5391425294808978  -1.3781430532182741 2.4930896695541978 0.0000000000000000 12.0000000000000000 38
1.5788823144728317  -1.4020354050537227 2.5441400360013042 0.0000000000000000 12.0000000000000000 39
1.6186043484060182  -1.4252966012250192 2.5947992436604781 0.0000000000000000 12.0000000000000000 40
1.6583097827355562  -1.4479384091507845 2.6450210611373626 0.0000000000000000 12.0000000000000000 41
1.6979997189666372  -1.4699728520099073 2.6947631591702557 0.0000000000000000 12.0000000000000000 42
1.7376752097142734  -1.4914121575924508 2.7439869666440306 0.0000000000000000 12.0000000000000000 43
1.7773372598466579  -1.5122687112249633 2.7926575204666966 0.0000000000000000 12.0000000000000000 44
1.8169868276962746  -1.5325550125805827 2.8407433110122651 0.0000000000000000 12.0000000000000000 45
1.8566248263245768  -1.5522836361752288 2.8882161246579301 0.0000000000000000 12.0000000000000000 46
1.8962521248276596  -1.5714671953462762 2.9350508847763286 0.0000000000000000 12.0000000000000000 47
1.9358695496718077  -1.5901183095085636 2.9812254923850343 0.0000000000000000 12.0000000000000000 48
1.9754778860491495  -1.6082495744838621 3.0267206675070586 0.0000000000000000 12.0000000000000000 49
2.0150778792448754  -1.6258735357035996 3.0715197921577539 0.0000000000000000 12.0000000000000000 50
2.0546702360085729  -1.6430026640899928 3.1156087557457064 0.0000000000000000 12.0000000000000000 51
2.0942556259232381  -1.6596493344275061 3.1589758035577056 0.0000000000000000 12.0000000000000000 52
2.1338346827664059  -1.6758258060444118 3.2016113888906519 0.0000000000000000 12.0000000000000000 53
2.1734080058586280  -1.6915442056326797 3.2435080292958967 0.0000000000000000 12.0000000000000000 54
2.2129761613952557  -1.7068165120433534 3.2846601673134406 0.0000000000000000 12.0000000000000000 55
2.2525396837580600  -1.7216545429037853 3.3250640359945169 0.0000000000000000 12.0000000000000000 56
2.2920990768038334  -1.7360699429122342 3.3647175294404508 0.0000000000000000 12.0000000000000000 57
2.3316548151275325  -1.7500741736744780 3.4036200785229491 0.0000000000000000 12.0000000000000000 58
2.3712073452980031  -1.7636785049560011 3.4417725318955563 0.0000000000000000 12.0000000000000000 59
2.4107570870646478  -1.7768940072318613 3.4791770423573505 0.0000000000000000 12.0000000000000000 60
2.4503044345337712  -1.7897315454246456 3.5158369585873346 0.0000000000000000 12.0000000000000000 61
2.4898497573135692  -1.8022017737287812 3.5517567222313242 0.0000000000000000 12.0000000000000000 62
2.5293934016270185  -1.8143151314268393 3.5869417702911357 0.0000000000000000 12.0000000000000000 63
2.5689356913921131  -1.8260818396105747 3.6213984427390908 0.0000000000000000 12.0000000000000000 64
2.6084769292690857  -1.8375118987258743 3.6551338952578458 0.0000000000000000 12.0000000000000000 65
2.6480173976744279  -1.8486150868670799 3.6881560169865457 0.0000000000000000 12.0000000000000000 66
2.6875573597616467  -1.8594009587516798 3.7204733531385856 0.0000000000000000 12.0000000000000000 67
2.7270970603688380  -1.8698788453118376 3.7520950323436750 0.0000000000000000 12.0000000000000000 68
2.7666367269332452  -1.8800578538440453 3.7830306985568942 0.0000000000000000 12.0000000000000000 69
2.8061765703730961  -1.8899468686627361 3.8132904473698650 0.0000000000000000 12.0000000000000000 70
2.8457167859370531  -1.8995545522080053 3.8428847665536749 0.0000000000000000 12.0000000000000000 71
2.8852575540217149  -1.9088893465613415 3.8718244806595496 0.0000000000000000 12.0000000000000000 72
2.9247990409576672  -1.9179594753269638 3.9001206995012767 0.0000000000000000 12.0000000000000000 73
2.9643413997646069  -1.9267729458396490 3.9277847703427415 0.0000000000000000 12.0000000000000000 74
3.0038847708761427  -1.9353375516629809 3.9548282336145215 0.0000000000000000 12.0000000000000000 75
3.0434292828348992  -1.9436608753447813 3.9812627819850404 0.0000000000000000 12.0000000000000000 76
3.0829750529585795  -1.9517502913991351 4.0071002226144721 0.0000000000000000 12.0000000000000000 77
3.1225221879776810  -1.9596129694867794 4.0323524424225985 0.0000000000000000 12.0000000000000000 78
3.1620707846455782  -1.9672558777679181 4.0570313762058472 0.0000000000000000 12.0000000000000000 79
3.2016209303217043  -1.9746857864034999 4.0811489774430632 0.0000000000000000 12.0000000000000000 80
3.2411727035285685  -1.9819092711830568 4.1047171916343208 0.0000000000000000 12.0000000000000000 81
3.2807261744833891  -1.9889327172587983 4.1277479320222179 0.0000000000000000 12.0000000000000000 82
3.3202814056050816  -1.9957623229674659 4.1502530575504899 0.0000000000000000 12.0000000000000000 83
3.3598384519973887  -2.0024041037228328 4.1722443529201083 0.0000000000000000 12.0000000000000000 84
3.3993973619089224  -2.0088638959632981 4.1937335106090066 0.0000000000000000 12.0000000000000000 85
3.4389581771708873  -2.0151473611401935 4.2147321147268757 0.0000000000000000 12.0000000000000000 86
3.4785209336132534  -2.0212599897337760 4.2352516265825910 0.0000000000000000 12.0000000000000000 87
3.5180856614601450  -2.0272071052849285 4.2553033718471944 0.0000000000000000 12.0000000000000000 88
3.5576523857052056  -2.0329938684317175 4.2748985292012947 0.0000000000000000 12.0000000000000000 89
3.5972211264676743  -2.0386252809408747 4.2940481203610767 0.0000000000000000 12.0000000000000000 90
3.6367918993299364  -2.0441061897252721 4.3127630013827982 0.0000000000000000 12.0000000000000000 91
3.6763647156572432  -2.0494412908392197 4.3310538551507483 0.0000000000000000 12.0000000000000000 92
3.7159395829003445  -2.0546351334443163 4.3489311849591177 0.0000000000000000 12.0000000000000000 93
3.7555165048817183  -2.0596921237392225 4.3664053091030368 0.0000000000000000 12.0000000000000000 94
3.7950954820660812  -2.0646165288475027 4.3834863563990432 0.0000000000000000 12.0000000000000000 95
3.8346765118158603  -2.0694124806582348 4.4001842625598968 0.0000000000000000 12.0000000000000000 96
3.8742595886322682  -2.0740839796147847 4.4165087673532479 0.0000000000000000 12.0000000000000000 97
3.9138447043826243  -2.0786348984475924 4.4324694124779302 0.0000000000000000 12.0000000000000000 98
3.9534318485145423  -2.0830689858473908 4.4480755400958660 0.0000000000000000 12.0000000000000000 99
3.9930210082575721  -2.0873898700757603 4.4633362919615411 0.0000000000000000 12.0000000000000000 100
4.0326121688128964  -2.0916010625102919 4.4782606090947983 0.0000000000000000 12.0000000000000000 101
4.0722053135316365  -2.0957059611221336 4.4928572319462807 0.0000000000000000 12.0000000000000000 102
4.1118004240823121  -2.0997078538839622 4.5071347010083471 0.0000000000000000 12.0000000000000000 103
4.1513974806079874  -2.1036099221069082 4.5211013578275088 0.0000000000000000 12.0000000000000000 104
4.1909964618736115  -2.1074152437051077 4.5347653463775037 0.0000000000000000 12.0000000000000000 105
4.2305973454040400  -2.1111267963869844 4.5481346147550648 0.0000000000000000 12.0000000000000000 106
4.2702001076132099  -2.1147474607725969 4.5612169171631951 0.0000000000000000 12.0000000000000000 107
4.3098047239249428  -2.1182800234365624 4.5740198161494012 0.0000000000000000 12.0000000000000000 108
4.3494111688857711  -2.1217271798764248 4.5865506850686630 0.0000000000000000 12.0000000000000000 109
4.3890194162702469  -2.1250915374063681 4.5988167107433995 0.0000000000000000 12.0000000000000000 110
4.4286294391791250  -2.1283756179765478 4.6108248962946652 0.0000000000000000 12.0000000000000000 111
4.4682412101307829  -2.1315818609183115 4.6225820641210404 0.0000000000000000 12.0000000000000000 112
4.5078547011462762  -2.1347126256158462 4.6340948590034277 0.0000000000000000 12.0000000000000000 113
4.5474698838283798  -2.1377701941048528 4.6453697513157195 0.0000000000000000 12.0000000000000000 114
4.5870867294349154  -2.1407567735990489 4.6564130403233079 0.0000000000000000 12.0000000000000000 115
4.6267052089467411  -2.1436744989452765 4.6672308575523722 0.0000000000000000 12.0000000000000000 116
4.6663252931306785  -2.1465254350082685 4.6778291702149879 0.0000000000000000 12.0000000000000000 117
4.7059469525976629  -2.1493115789860249 4.6882137846758782 0.0000000000000000 12.0000000000000000 118
4.7455701578564238  -2.1520348626569845 4.6983903499483732 0.0000000000000000 12.0000000000000000 119
4.7851948793629404  -2.1546971545600990 4.7083643612079129 0.0000000000000000 12.0000000000000000 120
4.8248210875659288  -2.1573002621090858 4.7181411633127865 0.0000000000000000 12.0000000000000000 121
4.8644487529486122  -2.1598459336421274 4.7277259543227483 0.0000000000000000 12.0000000000000000 122
4.9040778460669854  -2.1623358604083331 4.7371237890069846 0.0000000000000000 12.0000000000000000 123
4.9437083375847992  -2.1647716784922695 4.7463395823338859 0.0000000000000000 12.0000000000000000 124
4.9833401983054726  -2.1671549706780224 4.7553781129359018 0.0000000000000000 12.0000000000000000 125
5.0229733992011338  -2.1694872682540414 4.7642440265432917 0.0000000000000000 12.0000000000000000 126
5.0626079114389446  -2.1717700527603383 4.7729418393816729 0.0000000000000000 12.0000000000000000 127
5.1022437064049280  -2.1740047576792785 4.7814759415282779 0.0000000000000000 12.0000000000000000 128
5.1418807557254240  -2.1761927700715384 4.7898506002232182 0.0000000000000000 12.0000000000000000 129
5.1815190312863608  -2.1783354321585042 4.7980699631317378 0.0000000000000000 12.0000000000000000 130
5.2211585052504654  -2.1804340428526285 4.8061380615545852 0.0000000000000000 12.0000000000000000 131
5.2607991500725717  -2.1824898592371067 4.8140588135837703 0.0000000000000000 12.0000000000000000 132
5.3004409385131455  -2.1845040979962476 4.8218360272014458 0.0000000000000000 12.0000000000000000 133
5.3400838436501594  -2.1864779367979619 4.8294734033199500 0.0000000000000000 12.0000000000000000 134
5.3797278388894334  -2.1884125156297056 4.8369745387616421 0.0000000000000000 12.0000000000000000 135
5.4193728979735409  -2.1903089380892418 4.8443429291771505 0.0000000000000000 12.0000000000000000 136
5.4590189949894032  -2.1921682726315335 4.8515819719011111 0.0000000000000000 12.0000000000000000 137
5.4986661043746574  -2.1939915537730963 4.8586949687447776 0.0000000000000000 12.0000000000000000 138
5.5383142009228932  -2.1957797832551011 4.8656851287250129 0.0000000000000000 12.0000000000000000 139
5.5779632597878406  -2.1975339311664559 4.8725555707293573 0.0000000000000000 12.0000000000000000 140
5.6176132564866048  -2.1992549370281513 4.8793093261172285 0.0000000000000000 12.0000000000000000 141
5.6572641669020074  -2.2009437108400407 4.8859493412572625 0.0000000000000000 12.0000000000000000 142
5.6969159672841068  -2.2026011340913048 4.8924784800011816 0.0000000000000000 12.0000000000000000 143
5.7365686342509958  -2.2042280607356801 4.8988995260944632 0.0000000000000000 12.0000000000000000 144
5.7762221447888784  -2.2058253181326650 4.9052151855244102 0.0000000000000000 12.0000000000000000 145
5.8158764762515487  -2.2073937079557688 4.9114280888063320 0.0000000000000000 12.0000000000000000 146
5.8555316063592970  -2.2089340070688812 4.9175407932083477 0.0000000000000000 12.0000000000000000 147
5.8951875131972811  -2.2104469683718566 4.9235557849158820 0.0000000000000000 12.0000000000000000 148
5.9348441752134375  -2.2119333216162964 4.9294754811365395 0.0000000000000000 12.0000000000000000 149
5.9745015712159786  -2.2133937741925487 4.9353022321464310 0.0000000000000000 12.0000000000000000 150
6.0141596803704802  -2.2148290118888960 4.9410383232788586 0.0000000000000000 12.0000000000000000 151
6.0538184821966468  -2.2162396996238689 4.9466859768564868 0.0000000000000000 12.0000000000000000 152
6.0934779565647652  -2.2176264821526255 4.9522473540680370 0.0000000000000000 12.0000000000000000 153
6.1331380836918692  -2.2189899847482413 4.9577245567906152 0.0000000000000000 12.0000000000000000 154
6.1727988441376827  -2.2203308138588458 4.9631196293588582 0.0000000000000000 12.0000000000000000 155
6.2124602188003424  -2.2216495577413653 4.9684345602820166 0.0000000000000000 12.0000000000000000 156
6.2521221889119172  -2.2229467870727531 4.9736712839101331 0.0000000000000000 12.0000000000000000 157
6.2917847360337991  -2.2242230555394547 4.9788316820505774 0.0000000000000000 12.0000000000000000 158
6.3314478420519373  -2.2254789004058906 4.9839175855360374 0.0000000000000000 12.0000000000000000 159
6.3711114891719491  -2.2267148430626960 4.9889307757452093 0.0000000000000000 12.0000000000000000 160
6.4107756599141528  -2.2279313895554300 4.9938729860773448 0.0000000000000000 12.0000000000000000 161
6.4504403371085157  -2.2291290310944456 4.9987459033818764 0.0000000000000000 12.0000000000000000 162
6.4901055038895397  -2.2303082445466034 5.0035511693442665 0.0000000000000000 12.0000000000000000 163
6.5297711436910992  -2.2314694929094658 5.0082903818292408 0.0000000000000000 12.0000000000000000 164
6.5694372402412613  -2.2326132257686018 5.0129650961825938 0.0000000000000000 12.0000000000000000 165
6.6091037775570740  -2.2337398797386334 5.0175768264926859 0.0000000000000000 12.0000000000000000 166
6.6487707399393505  -2.2348498788885487 5.0221270468127450 0.0000000000000000 12.0000000000000000 167
6.6884381119674723  -2.2359436351519366 5.0266171923451157 0.0000000000000000 12.0000000000000000 168
6.7281058784941923  -2.2370215487226073 5.0310486605885254 0.0000000000000000 12.0000000000000000 169
6.7677740246404658  -2.2380840084361786 5.0354228124494416 0.0000000000000000 12.0000000000000000 170
6.8074425357903250  -2.2391313921381193 5.0397409733185610 0.0000000000000000 12.0000000000000000 171
6.8471113975857705  -2.2401640670387395 5.0440044341134893 0.0000000000000000 12.0000000000000000 172
6.8867805959217367  -2.2411823900556316 5.0482144522886294 0.0000000000000000 12.0000000000000000 173
6.9264501169410932  -2.2421867081439601 5.0523722528132025 0.0000000000000000 12.0000000000000000 174
6.9661199470297053  -2.2431773586151174 5.0564790291184254 0.0000000000000000 12.0000000000000000 175
7.0057900728115552  -2.2441546694441215 5.0605359440148252 0.0000000000000000 12.0000000000000000 176
7.0454604811439498  -2.2451189595661605 5.0645441305804759 0.0000000000000000 12.0000000000000000 177
7.0851311591127661  -2.2460705391627540 5.0685046930212385 0.0000000000000000 12.0000000000000000 178
7.1248020940277987  -2.2470097099378021 5.0724187075037293 0.0000000000000000 12.0000000000000000 179
7.1644732734181718  -2.2479367653839990 5.0762872229619509 0.0000000000000000 12.0000000000000000 180
7.2041446850278295  -2.2488519910398850 5.0801112618784030 0.0000000000000000 12.0000000000000000 181
7.2438163168111078  -2.2497556647379251 5.0838918210404724 0.0000000000000000 12.0000000000000000 182
7.2834881569283993  -2.2506480568439535 5.0876298722729043 0.0000000000000000 12.0000000000000000 183
7.3231601937418809  -2.2515294304882292 5.0913263631471173 0.0000000000000000 12.0000000000000000 184
7.3628324158113481  -2.2524000417885093 5.0949822176680630 0.0000000000000000 12.0000000000000000 185
7.4025048118901218  -2.2532601400653709 5.0985983369394834 0.0000000000000000 12.0000000000000000 186
7.4421773709210477  -2.2541099680500674 5.1021755998080769 0.0000000000000000 12.0000000000000000 187
7.4818500820325706  -2.2549497620852215 5.1057148634874254 0.0000000000000000 12.0000000000000000 188
7.5215229345349179  -2.2557797523186087 5.1092169641622549 0.0000000000000000 12.0000000000000000 189
7.5611959179163497  -2.2566001628902641 5.1126827175736933 0.0000000000000000 12.0000000000000000 190
7.6008690218394968  -2.2574112121131713 5.1161129195861275 0.0000000000000000 12.0000000000000000 191
7.6405422361377955  -2.2582131126478142 5.1195083467363540 0.0000000000000000 12.0000000000000000 192
7.6802155508119974  -2.2590060716707061 5.1228697567654056 0.0000000000000000 12.0000000000000000 193
7.7198889560267734  -2.2597902910372438 5.1261978891338966 0.0000000000000000 12.0000000000000000 194
7.7595624421073799  -2.2605659674389940 5.1294934655211817 0.0000000000000000 12.0000000000000000 195
