 # inv_tmp, energy, phys_var, phys_doublon, phys_num, step_i
0.0000000000000000  -0.0191986485896443 1.1389287195773281 0.0000000000000000 12.0000000000000000 0
0.0416089322399611  -0.0666023455224809 1.1421644731882088 0.0000000000000000 12.0000000000000000 1
0.0831360364255111  -0.1139127144213962 1.1487200076250972 0.0000000000000000 12.0000000000000000 2
0.1245819180125027  -0.1610822478897345 1.1585669890473955 0.0000000000000000 12.0000000000000000 3
0.1659473394827311  -0.2080642264981824 1.1716637556557088 0.0000000000000000 12.0000000000000000 4
0.2072332147247335  -0.2548128845220894 1.1879557305220148 0.0000000000000000 12.0000000000000000 5
0.2484406026932731  -0.3012835660172050 1.2073759443618297 0.0000000000000000 12.0000000000000000 6
0.2895707004222376  -0.3474328707493342 1.2298456596447269 0.0000000000000000 12.0000000000000000 7
0.3306248354662962  -0.3932187896121783 1.2552750861839961 0.0000000000000000 12.0000000000000000 8
0.3716044578464509  -0.4386008292659074 1.2835641773129391 0.0000000000000000 12.0000000000000000 9
0.4125111315737849  -0.4835401258078473 1.3146034949547147 0.0000000000000000 12.0000000000000000 10
0.4533465258244337  -0.5279995473481972 1.3482751313295125 0.0000000000000000 12.0000000000000000 11
0.4941124058372276  -0.5719437854109946 1.3844536747163683 0.0000000000000000 12.0000000000000000 12
0.5348106236036899  -0.6153394351170319 1.4230072065908710 0.0000000000000000 12.0000000000000000 13
0.5754431084181871  -0.6581550641350107 1.4637983175838407 0.0000000000000000 12.0000000000000000 14
0.6160118573540365  -0.7003612704134958 1.5066851300353272 0.0000000000000000 12.0000000000000000 15
0.6565189257293110  -0.7419307287325744 1.5515223154344415 0.0000000000000000 12.0000000000000000 16
0.6969664176238699  -0.7828382261434801 1.5981620957184057 0.0000000000000000 12.0000000000000000 17
0.7373564765067868  -0.8230606863987360 1.6464552182301260 0.0000000000000000 12.0000000000000000 18
0.7776912760307551  -0.8625771835162348 1.6962518950784271 0.0000000000000000 12.0000000000000000 19
0.8179730110471907  -0.9013689446684052 1.7474026986831845 0.0000000000000000 12.0000000000000000 20
0.8582038888925740  -0.9394193426422048 1.7997594063930618 0.0000000000000000 12.0000000000000000 21
0.8983861209930267  -0.9767138781761388 1.8531757882110895 0.0000000000000000 12.0000000000000000 22
0.9385219148302152  -1.0132401525452956 1.9075083328279494 0.0000000000000000 12.0000000000000000 23
0.9786134663073845  -1.0489878308327902 1.9626169083214764 0.0000000000000000 12.0000000000000000 24
1.0186629525497000  -1.0839485963935978 2.0183653550117455 0.0000000000000000 12.0000000000000000 25
1.0586725251681366  -1.1181160970824697 2.0746220090451772 0.0000000000000000 12.0000000000000000 26
1.0986443040109859  -1.1514858838789630 2.1312601563011659 0.0000000000000000 12.0000000000000000 27
1.1385803714216924  -1.1840553425977360 2.1881584171572941 0.0000000000000000 12.0000000000000000 28
1.1784827670163192  -1.2158236194189793 2.2452010635024058 0.0000000000000000 12.0000000000000000 29
1.2183534829885097  -1.2467915410111405 2.3022782701432907 0.0000000000000000 12.0000000000000000 30
1.2581944599445001  -1.2769615300443089 2.3592863034043008 0.0000000000000000 12.0000000000000000 31
1.2980075832656137  -1.3063375169076739 2.4161276502681028 0.0000000000000000 12.0000000000000000 32
1.3377946799908154  -1.3349248484476943 2.4727110918495128 0.0000000000000000 12.0000000000000000 33
1.3775575162073976  -1.3627301945353303 2.5289517253354168 0.0000000000000000 12.0000000000000000 34
1.4172977949338026  -1.3897614532515945 2.5847709387668836 0.0000000000000000 12.0000000000000000 35
1.4570171544749295  -1.4160276554512423 2.6400963431901090 0.0000000000000000 12.0000000000000000 36
1.4967171672271782  -1.4415388694262048 2.6948616667690852 0.0000000000000000 12.0000000000000000 37
1.5363993389078390  -1.4663061063441802 2.7490066154423047 0.0000000000000000 12.0000000000000000 38
1.5760651081813837  -1.4903412270854373 2.8024767046283796 0.0000000000000000 12.0000000000000000 39
1.6157158466536059  -1.5136568510435862 2.8552230663498674 0.0000000000000000 12.0000000000000000 40
1.6553528592035287  -1.5362662673952288 2.9072022359606620 0.0000000000000000 12.0000000000000000 41
1.6949773846223750  -1.5581833492807344 2.9583759224393313 0.0000000000000000 12.0000000000000000 42
1.7345905965287605  -1.5794224712748082 3.0087107659573991 0.0000000000000000 12.0000000000000000 43
1.7741936045294995  -1.5999984304626189 3.0581780861563237 0.0000000000000000 12.0000000000000000 44
1.8137874555960312  -1.6199263713757308 3.1067536242773692 0.0000000000000000 12.0000000000000000 45
1.8533731356273573  -1.6392217149831971 3.1544172819914986 0.0000000000000000 12.0000000000000000 46
1.8929515711715670  -1.6579000918773832 3.2011528594778715 0.0000000000000000 12.0000000000000000 47
1.9325236312793930  -1.6759772797421848 3.2469477950050063 0.0000000000000000 12.0000000000000000 48
1.9720901294647779  -1.6934691451435002 3.2917929079816628 0.0000000000000000 12.0000000000000000 49
2.0116518257491092  -1.7103915896387778 3.3356821471698717 0.0000000000000000 12.0000000000000000 50
2.0512094287675149  -1.7267605001637929 3.3786123454915464 0.0000000000000000 12.0000000000000000 51
2.0907635979174128  -1.7425917036212424 3.4205829826163581 0.0000000000000000 12.0000000000000000 52
2.1303149455313042  -1.7579009255664040 3.4615959562918457 0.0000000000000000 12.0000000000000000 53
2.1698640390576025  -1.7727037528607847 3.5016553631697809 0.0000000000000000 12.0000000000000000 54
2.2094114032350487  -1.7870156001442590 3.5407672896941373 0.0000000000000000 12.0000000000000000 55
2.2489575222479345  -1.8008516799601177 3.5789396134470954 0.0000000000000000 12.0000000000000000 56
2.2885028418510158  -1.8142269763550285 3.6161818151992167 0.0000000000000000 12.0000000000000000 57
2.3280477714545080  -1.8271562217668820 3.6525048017775590 0.0000000000000000 12.0000000000000000 58
2.3675926861610148  -1.8396538770077489 3.6879207397508291 0.0000000000000000 12.0000000000000000 59
2.4071379287475714  -1.8517341141459756 3.7224428998319561 0.0000000000000000 12.0000000000000000 60
2.4466838115872376  -1.8634108020908984 3.7560855118150673 0.0000000000000000 12.0000000000000000 61
2.4862306185057941  -1.8746974946849773 3.7888636297943727 0.0000000000000000 12.0000000000000000 62
2.5257786065701375  -1.8856074211115339 3.8207930073557805 0.0000000000000000 12.0000000000000000 63
2.5653280078058884  -1.8961534784309011 3.8518899823868260 0.0000000000000000 12.0000000000000000 64
2.6048790308425507  -1.9063482260638305 3.8821713711157040 0.0000000000000000 12.0000000000000000 65
2.6444318624853027  -1.9162038820478946 3.9116543709642979 0.0000000000000000 12.0000000000000000 66
2.6839866692131356  -1.9257323209003816 3.9403564717826884 0.0000000000000000 12.0000000000000000 67
2.7235435986036167  -1.9349450729293747 3.9682953750216421 0.0000000000000000 12.0000000000000000 68
2.7631027806850295  -1.9438533248433769 3.9954889203951871 0.0000000000000000 12.0000000000000000 69
2.8026643292170630  -1.9524679215186671 4.0219550195856755 0.0000000000000000 12.0000000000000000 70
2.8422283429015520  -1.9607993687925016 4.0477115965485826 0.0000000000000000 12.0000000000000000 71
2.8817949065250534  -1.9688578371592402 4.0727765339826743 0.0000000000000000 12.0000000000000000 72
2.9213640920352968  -1.9766531662551754 4.0971676255424168 0.0000000000000000 12.0000000000000000 73
2.9609359595536779  -1.9841948700265171 4.1209025333829965 0.0000000000000000 12.0000000000000000 74
3.0005105583261544  -1.9914921424832592 4.1439987506438420 0.0000000000000000 12.0000000000000000 75
3.0400879276149637  -1.9985538639496998 4.1664735684930889 0.0000000000000000 12.0000000000000000 76
3.0796680975336739  -2.0053886077300409 4.1883440473731657 0.0000000000000000 12.0000000000000000 77
3.1192510898280825  -2.0120046471148019 4.2096269921059148 0.0000000000000000 12.0000000000000000 78
3.1588369186055458  -2.0184099626606775 4.2303389305341188 0.0000000000000000 12.0000000000000000 79
3.1984255910152317  -2.0246122496829475 4.2504960953950448 0.0000000000000000 12.0000000000000000 80
3.2380171078818489  -2.0306189259056797 4.2701144091400529 0.0000000000000000 12.0000000000000000 81
3.2776114642952869  -2.0364371392206286 4.2892094714323621 0.0000000000000000 12.0000000000000000 82
3.3172086501586007  -2.0420737755110157 4.3077965490730765 0.0000000000000000 12.0000000000000000 83
3.3568086506966721  -2.0475354665012810 4.3258905681223796 0.0000000000000000 12.0000000000000000 84
3.3964114469278295  -2.0528285975984506 4.3435061079997475 0.0000000000000000 12.0000000000000000 85
3.4360170161006178  -2.0579593156948723 4.3606573973625951 0.0000000000000000 12.0000000000000000 86
3.4756253320978243  -2.0629335369059389 4.3773583115780612 0.0000000000000000 12.0000000000000000 87
3.5152363658097960  -2.0677569542198673 4.3936223716169769 0.0000000000000000 12.0000000000000000 88
3.5548500854789715  -2.0724350450398066 4.4094627442126137 0.0000000000000000 12.0000000000000000 89
3.5944664570174734  -2.0769730786014593 4.4248922431397562 0.0000000000000000 12.0000000000000000 90
3.6340854442995303  -2.0813761232519599 4.4399233314815350 0.0000000000000000 12.0000000000000000 91
3.6737070094303776  -2.0856490535781482 4.4545681247629068 0.0000000000000000 12.0000000000000000 92
3.7133311129932296  -2.0897965573745307 4.4688383948400663 0.0000000000000000 12.0000000000000000 93
3.7529577142758126  -2.0938231424430813 4.4827455744451923 0.0000000000000000 12.0000000000000000 94
3.7925867714778705  -2.0977331432187807 4.4963007622946733 0.0000000000000000 12.0000000000000000 95
3.8322182419009678  -2.1015307272162564 4.5095147286778952 0.0000000000000000 12.0000000000000000 96
3.8718520821218574  -2.1052199012943427 4.5223979214511889 0.0000000000000000 12.0000000000000000 97
3.9114882481505644  -2.1088045177364343 4.5349604723690842 0.0000000000000000 12.0000000000000000 98
3.9511266955743247  -2.1122882801456848 4.5472122036914593 0.0000000000000000 12.0000000000000000 99
3.9907673796883780  -2.1156747491549219 4.5591626350115781 0.0000000000000000 12.0000000000000000 100
4.0304102556146146  -2.1189673479520494 4.5708209902555934 0.0000000000000000 12.0000000000000000 101
4.0700552784089776  -2.1221693676223148 4.5821962048092351 0.0000000000000000 12.0000000000000000 102
4.1097024031584510  -2.1252839723094690 4.5932969327322848 0.0000000000000000 12.0000000000000000 103
4.1493515850684526  -2.1283142041983787 4.6041315540257877 0.0000000000000000 12.0000000000000000 104
4.1890027795413669  -2.1312629883219754 4.6147081819207862 0.0000000000000000 12.0000000000000000 105
4.2286559422468786  -2.1341331371960082 4.6250346701612628 0.0000000000000000 12.0000000000000000 106
4.2683110291847930  -2.1369273552850627 4.6351186202569981 0.0000000000000000 12.0000000000000000 107
4.3079679967409179  -2.1396482433038639 4.6449673886852620 0.0000000000000000 12.0000000000000000 108
4.3476268017365474  -2.1422983023578643 4.6545880940229001 0.0000000000000000 12.0000000000000000 109
4.3872874014721077  -2.1448799379273220 4.6639876239927602 0.0000000000000000 12.0000000000000000 110
4.4269497537654052  -2.1473954636992887 4.6731726424108819 0.0000000000000000 12.0000000000000000 111
4.4666138169849408  -2.1498471052518133 4.6821495960225583 0.0000000000000000 12.0000000000000000 112
4.5062795500787001  -2.1522370035949043 4.6909247212175194 0.0000000000000000 12.0000000000000000 113
4.5459469125988088  -2.1545672185726943 4.6995040506158299 0.0000000000000000 12.0000000000000000 114
4.5856158647224010  -2.1568397321312673 4.7078934195177533 0.0000000000000000 12.0000000000000000 115
4.6252863672690241  -2.1590564514566766 4.7160984722121615 0.0000000000000000 12.0000000000000000 116
4.6649583817149107  -2.1612192119874809 4.7241246681390106 0.0000000000000000 12.0000000000000000 117
4.7046318702043575  -2.1633297803062224 4.7319772879026720 0.0000000000000000 12.0000000000000000 118
4.7443067955585141  -2.1653898569141581 4.7396614391339487 0.0000000000000000 12.0000000000000000 119
4.7839831212817945  -2.1674010788933762 4.7471820621988652 0.0000000000000000 12.0000000000000000 120
4.8236608115661381  -2.1693650224605743 4.7545439357538841 0.0000000000000000 12.0000000000000000 121
4.8633398312933345  -2.1712832054164175 4.7617516821470387 0.0000000000000000 12.0000000000000000 122
4.9030201460355922  -2.1731570894944938 4.7688097726656586 0.0000000000000000 12.0000000000000000 123
4.9427017220545260  -2.1749880826136958 4.7757225326314137 0.0000000000000000 12.0000000000000000 124
4.9823845262987243  -2.1767775410377759 4.7824941463441322 0.0000000000000000 12.0000000000000000 125
5.0220685264000551  -2.1785267714456968 4.7891286618760764 0.0000000000000000 12.0000000000000000 126
5.0617536906688159  -2.1802370329162937 4.7956299957186372 0.0000000000000000 12.0000000000000000 127
5.1014399880878880  -2.1819095388307010 4.8020019372838743 0.0000000000000000 12.0000000000000000 128
5.1411273883059962  -2.1835454586958045 4.8082481532633405 0.0000000000000000 12.0000000000000000 129
5.1808158616301583  -2.1851459198919141 4.8143721918469051 0.0000000000000000 12.0000000000000000 130
5.2205053790174540  -2.1867120093477825 4.8203774868045786 0.0000000000000000 12.0000000000000000 131
5.2601959120661954  -2.1882447751458951 4.8262673614341765 0.0000000000000000 12.0000000000000000 132
5.2998874330065382  -2.1897452280609349 4.8320450323781374 0.0000000000000000 12.0000000000000000 133
5.3395799146906811  -2.1912143430341473 4.8377136133124248 0.0000000000000000 12.0000000000000000 134
5.3792733305826550  -2.1926530605863479 4.8432761185110920 0.0000000000000000 12.0000000000000000 135
5.4189676547477914  -2.1940622881720016 4.8487354662894493 0.0000000000000000 12.0000000000000000 136
5.4586628618419377  -2.1954429014769907 4.8540944823294296 0.0000000000000000 12.0000000000000000 137
5.4983589271004449  -2.1967957456623082 4.8593559028902389 0.0000000000000000 12.0000000000000000 138
5.5380558263269890  -2.1981216365560261 4.8645223779077584 0.0000000000000000 12.0000000000000000 139
5.5777535358822696  -2.1994213617957135 4.8695964739858946 0.0000000000000000 12.0000000000000000 140
5.6174520326726203  -2.2006956819233552 4.8745806772831317 0.0000000000000000 12.0000000000000000 141
5.6571512941385604  -2.2019453314348691 4.8794773962976130 0.0000000000000000 12.0000000000000000 142
5.6968512982433293  -2.2031710197860437 4.8842889645537468 0.0000000000000000 12.0000000000000000 143
5.7365520234614298  -2.2043734323568613 4.8890176431936867 0.0000000000000000 12.0000000000000000 144
5.7762534487671964  -2.2055532313758834 4.8936656234765623 0.0000000000000000 12.0000000000000000 145
5.8159555536234215  -2.2067110568064536 4.8982350291885961 0.0000000000000000 12.0000000000000000 146
5.8556583179700636  -2.2078475271963507 4.9027279189670301 0.0000000000000000 12.0000000000000000 147
5.8953617222130301  -2.2089632404924058 4.9071462885407415 0.0000000000000000 12.0000000000000000 148
5.9350657472130903  -2.2100587748216469 4.9114920728903950 0.0000000000000000 12.0000000000000000 149
5.9747703742749039  -2.2111346892403261 4.9157671483307777 0.0000000000000000 12.0000000000000000 150
6.0144755851361786  -2.2121915244522801 4.9199733345182377 0.0000000000000000 12.0000000000000000 151
6.0541813619569895  -2.2132298034978581 4.9241123963855005 0.0000000000000000 12.0000000000000000 152
6.0938876873092447  -2.2142500324147396 4.9281860460067302 0.0000000000000000 12.0000000000000000 153
6.1335945441663124  -2.2152527008718161 4.9321959443950600 0.0000000000000000 12.0000000000000000 154
6.1733019158928357  -2.2162382827772502 4.9361437032351008 0.0000000000000000 12.0000000000000000 155
6.2130097862347196  -2.2172072368619076 4.9400308865527434 0.0000000000000000 12.0000000000000000 156
6.2527181393092848  -2.2181600072391006 4.9438590123244541 0.0000000000000000 12.0000000000000000 157
6.2924269595956348  -2.2190970239417487 4.9476295540283139 0.0000000000000000 12.0000000000000000 158
6.3321362319251993  -2.2200187034378533 4.9513439421388181 0.0000000000000000 12.0000000000000000 159
6.3718459414724666  -2.2209254491252404 4.9550035655676137 0.0000000000000000 12.0000000000000000 160
6.4115560737459241  -2.2218176518064574 4.9586097730520082 0.0000000000000000 12.0000000000000000 161
6.4512666145791844  -2.2226956901446369 4.9621638744932524 0.0000000000000000 12.0000000000000000 162
6.4909775501223095  -2.2235599311011587 4.9656671422464180 0.0000000000000000 12.0000000000000000 163
6.5306888668333363  -2.2244107303558929 4.9691208123636557 0.0000000000000000 12.0000000000000000 164
6.5704005514699944  -2.2252484327107203 4.9725260857925386 0.0000000000000000 12.0000000000000000 165
6.6101125910816210  -2.2260733724770669 4.9758841295311704 0.0000000000000000 12.0000000000000000 166
6.6498249730012668  -2.2268858738481452 4.9791960777416886 0.0000000000000000 12.0000000000000000 167
6.6895376848380064  -2.2276862512564763 4.9824630328236328 0.0000000000000000 12.0000000000000000 168
6.7292507144694165  -2.2284748097174112 4.9856860664487597 0.0000000000000000 12.0000000000000000 169
6.7689640500342758  -2.2292518451591365 4.9888662205586893 0.0000000000000000 12.0000000000000000 170
6.8086776799254194  -2.2300176447398172 4.9920045083267555 0.0000000000000000 12.0000000000000000 171
6.8483915927828036  -2.2307724871523638 4.9951019150854856 0.0000000000000000 12.0000000000000000 172
6.8881057774867314  -2.2315166429173576 4.9981593992208744 0.0000000000000000 12.0000000000000000 173
6.9278202231512802  -2.2322503746646203 5.0011778930347797 0.0000000000000000 12.0000000000000000 174
6.9675349191178748  -2.2329739374039277 5.0041583035766202 0.0000000000000000 12.0000000000000000 175
7.0072498549490705  -2.2336875787852648 5.0071015134454928 0.0000000000000000 12.0000000000000000 176
7.0469650204224763  -2.2343915393491183 5.0100083815638339 0.0000000000000000 12.0000000000000000 177
7.0866804055248540  -2.2350860527671772 5.0128797439237403 0.0000000000000000 12.0000000000000000 178
7.1263960004463884  -2.2357713460738520 5.0157164143068620 0.0000000000000000 12.0000000000000000 179
7.1661117955751150  -2.2364476398889725 5.0185191849789756 0.0000000000000000 12.0000000000000000 180
7.2058277814914886  -2.2371151486320802 5.0212888273601095 0.0000000000000000 12.0000000000000000 181
7.2455439489631335  -2.2377740807285882 5.0240260926712050 0.0000000000000000 12.0000000000000000 182
7.2852602889397184  -2.2384246388081830 5.0267317125580497 0.0000000000000000 12.0000000000000000 183
7.3249767925479921  -2.2390670198958018 5.0294063996935572 0.0000000000000000 12.0000000000000000 184
7.3646934510869597  -2.2397014155954387 5.0320508483590043 0.0000000000000000 12.0000000000000000 185
7.4044102560231950  -2.2403280122671028 5.0346657350050661 0.0000000000000000 12.0000000000000000 186
7.4441271989862985  -2.2409469911972129 5.0372517187935095 0.0000000000000000 12.0000000000000000 187
7.4838442717644718  -2.2415585287626740 5.0398094421200668 0.0000000000000000 12.0000000000000000 188
7.5235614663002446  -2.2421627965889011 5.0423395311194108 0.0000000000000000 12.0000000000000000 189
7.5632787746863084  -2.2427599617020264 5.0448425961526953 0.0000000000000000 12.0000000000000000 190
7.6029961891614821  -2.2433501866755421 5.0473192322784648 0.0000000000000000 12.0000000000000000 191
7.6427137021068026  -2.2439336297715751 5.0497700197074673 0.0000000000000000 12.0000000000000000 192
7.6824313060417193  -2.2445104450770348 5.0521955242419851 0.0000000000000000 12.0000000000000000 193
7.7221489936204160  -2.2450807826348225 5.0545962977002539 0.0000000000000000 12.0000000000000000 194
7.7618667576282325  -2.2456447885702930 5.0569728783265377 0.0000000000000000 12.0000000000000000 195
