 # inv_tmp, energy, phys_var, phys_doublon, phys_num, step_i
0.0000000000000000  0.0229926219843450 1.1156536982825698 0.0000000000000000 12.0000000000000000 0
0.0416463027117842  -0.0234707469982158 1.1142955267006174 0.0000000000000000 12.0000000000000000 1
0.0832122958130749  -0.0698190203218844 1.1160237723892039 0.0000000000000000 12.0000000000000000 2
0.1246986391343620  -0.1160022406903567 1.1208198817257313 0.0000000000000000 12.0000000000000000 3
0.1661061561732594  -0.1619717432717354 1.1286531915400755 0.0000000000000000 12.0000000000000000 4
0.2074358260026132  -0.2076803833973441 1.1394813334251555 0.0000000000000000 12.0000000000000000 5
0.2486887742288209  -0.2530827425233250 1.1532507414513398 0.0000000000000000 12.0000000000000000 6
0.2898662631569706  -0.2981353108299375 1.1698972528799101 0.0000000000000000 12.0000000000000000 7
0.3309696813235633  -0.3427966453460184 1.1893467902610859 0.0000000000000000 12.0000000000000000 8
0.3720005325577677  -0.3870275029909793 1.2115161124274076 0.0000000000000000 12.0000000000000000 9
0.4129604247286571  -0.4307909484095244 1.2363136213569486 0.0000000000000000 12.0000000000000000 10
0.4538510583291513  -0.4740524369223846 1.2636402116739813 0.0000000000000000 12.0000000000000000 11
0.4946742150378801  -0.5167798733196109 1.2933901496573958 0.0000000000000000 12.0000000000000000 12
0.5354317463884748  -0.5589436475738390 1.3254519690110489 0.0000000000000000 12.0000000000000000 13
0.5761255626624248  -0.6005166488443656 1.3597093712794388 0.0000000000000000 12.0000000000000000 14
0.6167576221071649  -0.6414742593766273 1.3960421196268162 0.0000000000000000 12.0000000000000000 15
0.6573299205660214  -0.6817943300756240 1.4343269156953278 0.0000000000000000 12.0000000000000000 16
0.6978444815914966  -0.7214571396480257 1.4744382503746856 0.0000000000000000 12.0000000000000000 17
0.7383033470985716  -0.7604453392700171 1.5162492205106757 0.0000000000000000 12.0000000000000000 18
0.7787085686005594  -0.7987438847513192 1.5596323048129541 0.0000000000000000 12.0000000000000000 19
0.8190621990568682  -0.8363399581364015 1.6044600934588600 0.0000000000000000 12.0000000000000000 20
0.8593662853500094  -0.8732228806182646 1.6506059670986826 0.0000000000000000 12.0000000000000000 21
0.8996228613984676  -0.9093840185450766 1.6979447221229196 0.0000000000000000 12.0000000000000000 22
0.9398339419027011  -0.9448166841821530 1.7463531401334151 0.0000000000000000 12.0000000000000000 23
0.9800015167135855  -0.9795160327577797 1.7957105005522611 0.0000000000000000 12.0000000000000000 24
1.0201275458060250  -1.0134789571767842 1.8458990361943135 0.0000000000000000 12.0000000000000000 25
1.0602139548351599  -1.0467039816362953 1.8968043324153476 0.0000000000000000 12.0000000000000000 26
1.1002626312485213  -1.0791911552277178 1.9483156711254761 0.0000000000000000 12.0000000000000000 27
1.1402754209244894  -1.1109419464618995 2.0003263215279086 0.0000000000000000 12.0000000000000000 28
1.1802541253053991  -1.1419591395133575 2.0527337799096421 0.0000000000000000 12.0000000000000000 29
1.2202004989924593  -1.1722467328468082 2.1054399611793966 0.0000000000000000 12.0000000000000000 30
1.2601162477691918  -1.2018098407665188 2.1583513451258596 0.0000000000000000 12.0000000000000000 31
1.3000030270202294  -1.2306545983173993 2.2113790805646314 0.0000000000000000 12.0000000000000000 32
1.3398624405129185  -1.2587880698665277 2.2644390506637708 0.0000000000000000 12.0000000000000000 33
1.3796960395101481  -1.2862181616053283 2.3174519027947333 0.0000000000000000 12.0000000000000000 34
1.4195053221840919  -1.3129535381353699 2.3703430462565565 0.0000000000000000 12.0000000000000000 35
1.4592917333019984  -1.3390035432344309 2.4230426211751697 0.0000000000000000 12.0000000000000000 36
1.4990566641567515  -1.3643781248432267 2.4754854417946772 0.0000000000000000 12.0000000000000000 37
1.5388014527165883  -1.3890877642662620 2.5276109172610344 0.0000000000000000 12.0000000000000000 38
1.5785273839700322  -1.4131434095417637 2.5793629528575188 0.0000000000000000 12.0000000000000000 39
1.6182356904437898  -1.4365564129045800 2.6306898344918817 0.0000000000000000 12.0000000000000000 40
1.6579275528729871  -1.4593384722414164 2.6815440990624828 0.0000000000000000 12.0000000000000000 41
1.6976041010047120  -1.4815015764189903 2.7318823931498248 0.0000000000000000 12.0000000000000000 42
1.7372664145173289  -1.5030579543516382 2.7816653222945695 0.0000000000000000 12.0000000000000000 43
1.7769155240394778  -1.5240200276650293 2.8308572929368943 0.0000000000000000 12.0000000000000000 44
1.8165524122540073  -1.5444003668061264 2.8794263489076712 0.0000000000000000 12.0000000000000000 45
1.8561780150733553  -1.5642116504457138 2.9273440041814753 0.0000000000000000 12.0000000000000000 46
1.8957932228740721  -1.5834666280183942 2.9745850734273072 0.0000000000000000 12.0000000000000000 47
1.9353988817792744  -1.6021780852451988 3.0211275017255641 0.0000000000000000 12.0000000000000000 48
1.9749957949788337  -1.6203588124856076 3.0669521946613725 0.0000000000000000 12.0000000000000000 49
2.0145847240780483  -1.6380215757686005 3.1120428498545141 0.0000000000000000 12.0000000000000000 50
2.0541663904664227  -1.6551790903558263 3.1563857908463246 0.0000000000000000 12.0000000000000000 51
2.0937414766989826  -1.6718439966941929 3.1999698041336866 0.0000000000000000 12.0000000000000000 52
2.1333106278833158  -1.6880288386196585 3.2427859800197179 0.0000000000000000 12.0000000000000000 53
2.1728744530661990  -1.7037460436788814 3.2848275578404880 0.0000000000000000 12.0000000000000000 54
2.2124335266143502  -1.7190079054402845 3.3260897760258232 0.0000000000000000 12.0000000000000000 55
2.2519883895844055  -1.7338265676712084 3.3665697273608948 0.0000000000000000 12.0000000000000000 56
2.2915395510777996  -1.7482140102628376 3.4062662197323035 0.0000000000000000 12.0000000000000000 57
2.3310874895767251  -1.7621820367896583 3.4451796425683847 0.0000000000000000 12.0000000000000000 58
2.3706326542578258  -1.7757422635951459 3.4833118391171123 0.0000000000000000 12.0000000000000000 59
2.4101754662807227  -1.7889061103002448 3.5206659846464063 0.0000000000000000 12.0000000000000000 60
2.4497163200488599  -1.8016847916360703 3.5572464706002496 0.0000000000000000 12.0000000000000000 61
2.4892555844405644  -1.8140893105067815 3.5930587946987398 0.0000000000000000 12.0000000000000000 62
2.5287936040085097  -1.8261304521932724 3.6281094569315746 0.0000000000000000 12.0000000000000000 63
2.5683307001461606  -1.8378187796126362 3.6624058613608232 0.0000000000000000 12.0000000000000000 64
2.6078671722199815  -1.8491646295527271 3.6959562236207235 0.0000000000000000 12.0000000000000000 65
2.6474032986665454  -1.8601781098052839 3.7287694839785490 0.0000000000000000 12.0000000000000000 66
2.6869393380538580  -1.8708690971251285 3.7608552258009635 0.0000000000000000 12.0000000000000000 67
2.7264755301064656  -1.8812472359469006 3.7922235992548088 0.0000000000000000 12.0000000000000000 68
2.7660120966941091  -1.8913219377945862 3.8228852500587545 0.0000000000000000 12.0000000000000000 69
2.8055492427838633  -1.9011023813227172 3.8528512530929393 0.0000000000000000 12.0000000000000000 70
2.8450871573558705  -1.9105975129317649 3.8821330506671394 0.0000000000000000 12.0000000000000000 71
2.8846260142829059  -1.9198160479035948 3.9107423952435822 0.0000000000000000 12.0000000000000000 72
2.9241659731741714  -1.9287664720062196 3.9386912964083600 0.0000000000000000 12.0000000000000000 73
2.9637071801837824  -1.9374570435201905 3.9659919718847649 0.0000000000000000 12.0000000000000000 74
3.0032497687845612  -1.9458957956421192 3.9926568023830580 0.0000000000000000 12.0000000000000000 75
3.0427938605077887  -1.9540905392236683 4.0186982900834636 0.0000000000000000 12.0000000000000000 76
3.0823395656496739  -1.9620488658072157 4.0441290205526172 0.0000000000000000 12.0000000000000000 77
3.1218869839453434  -1.9697781509220635 4.0689616278981644 0.0000000000000000 12.0000000000000000 78
3.1614362052112086  -1.9772855576076227 4.0932087629712095 0.0000000000000000 12.0000000000000000 79
3.2009873099566115  -1.9845780401324857 4.1168830644322743 0.0000000000000000 12.0000000000000000 80
3.2405403699656739  -1.9916623478805875 4.1399971325024083 0.0000000000000000 12.0000000000000000 81
3.2800954488503180  -1.9985450293778595 4.1625635052278698 0.0000000000000000 12.0000000000000000 82
3.3196526025754167  -2.0052324364349725 4.1845946370936238 0.0000000000000000 12.0000000000000000 83
3.3592118799570660  -2.0117307283835921 4.2061028798278457 0.0000000000000000 12.0000000000000000 84
3.3987733231349613  -2.0180458763855826 4.2271004652468438 0.0000000000000000 12.0000000000000000 85
3.4383369680198741  -2.0241836677962857 4.2475994899969205 0.0000000000000000 12.0000000000000000 86
3.4779028447171925  -2.0301497105647015 4.2676119020568795 0.0000000000000000 12.0000000000000000 87
3.5174709779275215  -2.0359494376549003 4.2871494888718136 0.0000000000000000 12.0000000000000000 88
3.5570413873252869  -2.0415881114745531 4.3062238669958965 0.0000000000000000 12.0000000000000000 89
3.5966140879162882  -2.0470708282977550 4.3248464731286580 0.0000000000000000 12.0000000000000000 90
3.6361890903751402  -2.0524025226706026 4.3430285564356401 0.0000000000000000 12.0000000000000000 91
3.6757664013634890  -2.0575879717892427 4.3607811720510785 0.0000000000000000 12.0000000000000000 92
3.7153460238298979  -2.0626317998411405 4.3781151756661849 0.0000000000000000 12.0000000000000000 93
3.7549279572922671  -2.0675384823014058 4.3950412191126214 0.0000000000000000 12.0000000000000000 94
3.7945121981036047  -2.0723123501768979 4.4115697468565855 0.0000000000000000 12.0000000000000000 95
3.8340987397019726  -2.0769575941918239 4.4277109933243066 0.0000000000000000 12.0000000000000000 96
3.8736875728453857  -2.0814782689092457 4.4434749809850089 0.0000000000000000 12.0000000000000000 97
3.9132786858324136  -2.0858782967837231 4.4588715191224306 0.0000000000000000 12.0000000000000000 98
3.9528720647092150  -2.0901614721410136 4.4739102032306235 0.0000000000000000 12.0000000000000000 99
3.9924676934637118  -2.0943314650813560 4.4886004149744148 0.0000000000000000 12.0000000000000000 100
4.0320655542075654  -2.0983918253034632 4.5029513226589888 0.0000000000000000 12.0000000000000000 101
4.0716656273466079  -2.1023459858468754 4.5169718821571792 0.0000000000000000 12.0000000000000000 102
4.1112678917403365  -2.1061972667508115 4.5306708382468468 0.0000000000000000 12.0000000000000000 103
4.1508723248510861  -2.1099488786280745 4.5440567263142411 0.0000000000000000 12.0000000000000000 104
4.1904789028834211  -2.1136039261530128 4.5571378743826099 0.0000000000000000 12.0000000000000000 105
4.2300876009143016  -2.1171654114628327 4.5699224054285619 0.0000000000000000 12.0000000000000000 106
4.2696983930145329  -2.1206362374719561 4.5824182399515010 0.0000000000000000 12.0000000000000000 107
4.3093112523620132  -2.1240192110993199 4.5946330987643034 0.0000000000000000 12.0000000000000000 108
4.3489261513472020  -2.1273170464088955 4.6065745059760763 0.0000000000000000 12.0000000000000000 109
4.3885430616713110  -2.1305323676637857 4.6182497921399719 0.0000000000000000 12.0000000000000000 110
4.4281619544376039  -2.1336677122946304 4.6296660975417225 0.0000000000000000 12.0000000000000000 111
4.4677828002362174  -2.1367255337830811 4.6408303756061962 0.0000000000000000 12.0000000000000000 112
4.5074055692228923  -2.1397082044613800 4.6517493964015815 0.0000000000000000 12.0000000000000000 113
4.5470302311919859  -2.1426180182291663 4.6624297502224623 0.0000000000000000 12.0000000000000000 114
4.5866567556440767  -2.1454571931887489 4.6728778512347704 0.0000000000000000 12.0000000000000000 115
4.6262851118485315  -2.1482278742002157 4.6830999411671250 0.0000000000000000 12.0000000000000000 116
4.6659152689013199  -2.1509321353578361 4.6931020930346188 0.0000000000000000 12.0000000000000000 117
4.7055471957783617  -2.1535719823892663 4.7028902148823750 0.0000000000000000 12.0000000000000000 118
4.7451808613847080  -2.1561493549791400 4.7124700535374489 0.0000000000000000 12.0000000000000000 119
4.7848162345998038  -2.1586661290187030 4.7218471983588106 0.0000000000000000 12.0000000000000000 120
4.8244532843190733  -2.1611241187831425 4.7310270849762164 0.0000000000000000 12.0000000000000000 121
4.8640919794920761  -2.1635250790383380 4.7400149990097216 0.0000000000000000 12.0000000000000000 122
4.9037322891574497  -2.1658707070787626 4.7488160797625358 0.0000000000000000 12.0000000000000000 123
4.9433741824748401  -2.1681626446982456 4.7574353238806397 0.0000000000000000 12.0000000000000000 124
4.9830176287540233  -2.1704024800954045 4.7658775889735141 0.0000000000000000 12.0000000000000000 125
5.0226625974814070  -2.1725917497154450 4.7741475971908782 0.0000000000000000 12.0000000000000000 126
5.0623090583440700  -2.1747319400301195 4.7822499387510087 0.0000000000000000 12.0000000000000000 127
5.1019569812515257  -2.1768244892575286 4.7901890754168477 0.0000000000000000 12.0000000000000000 128
5.1416063363553510  -2.1788707890235601 4.7979693439166402 0.0000000000000000 12.0000000000000000 129
5.1812570940668232  -2.1808721859666060 4.8055949593061644 0.0000000000000000 12.0000000000000000 130
5.2209092250727087  -2.1828299832872902 4.8130700182703947 0.0000000000000000 12.0000000000000000 131
5.2605627003493449  -2.1847454422448385 4.8203985023624405 0.0000000000000000 12.0000000000000000 132
5.3002174911750943  -2.1866197836017482 4.8275842811783347 0.0000000000000000 12.0000000000000000 133
5.3398735691413366  -2.1884541890183744 4.8346311154663439 0.0000000000000000 12.0000000000000000 134
5.3795309061620724  -2.1902498023989470 4.8415426601698082 0.0000000000000000 12.0000000000000000 135
5.4191894744822475  -2.1920077311906616 4.8483224674029550 0.0000000000000000 12.0000000000000000 136
5.4588492466848857  -2.1937290476372739 4.8549739893591433 0.0000000000000000 12.0000000000000000 137
5.4985101956971363  -2.1954147899887504 4.8615005811514269 0.0000000000000000 12.0000000000000000 138
5.5381722947952996  -2.1970659636683214 4.8679055035852619 0.0000000000000000 12.0000000000000000 139
5.5778355176089089  -2.1986835423984683 4.8741919258637738 0.0000000000000000 12.0000000000000000 140
5.6174998381239662  -2.2002684692871179 4.8803629282256944 0.0000000000000000 12.0000000000000000 141
5.6571652306853561  -2.2018216578754397 4.8864215045165205 0.0000000000000000 12.0000000000000000 142
5.6968316699985504  -2.2033439931485268 4.8923705646935174 0.0000000000000000 12.0000000000000000 143
5.7364991311306222  -2.2048363325102285 4.8982129372652095 0.0000000000000000 12.0000000000000000 144
5.7761675895106483  -2.2062995067233753 4.9039513716661896 0.0000000000000000 12.0000000000000000 145
5.8158370209295436  -2.2077343208165865 4.9095885405681461 0.0000000000000000 12.0000000000000000 146
5.8555074015393851  -2.2091415549588116 4.9151270421280273 0.0000000000000000 12.0000000000000000 147
5.8951787078522395  -2.2105219653027568 4.9205694021743769 0.0000000000000000 12.0000000000000000 148
5.9348509167385979  -2.2118762847982540 4.9259180763329518 0.0000000000000000 12.0000000000000000 149
5.9745240054253861  -2.2132052239766660 4.9311754520926456 0.0000000000000000 12.0000000000000000 150
6.0141979514936388  -2.2145094717073102 4.9363438508130209 0.0000000000000000 12.0000000000000000 151
6.0538727328758446  -2.2157896959269574 4.9414255296744454 0.0000000000000000 12.0000000000000000 152
6.0935483278530143  -2.2170465443432819 4.9464226835722398 0.0000000000000000 12.0000000000000000 153
6.1332247150514796  -2.2182806451132673 4.9513374469558702 0.0000000000000000 12.0000000000000000 154
6.1729018734394607  -2.2194926074974251 4.9561718956146157 0.0000000000000000 12.0000000000000000 155
6.2125797823234432  -2.2206830224907068 4.9609280484107856 0.0000000000000000 12.0000000000000000 156
6.2522584213443588  -2.2218524634309382 4.9656078689618326 0.0000000000000000 12.0000000000000000 157
6.2919377704736039  -2.2230014865856194 4.9702132672726149 0.0000000000000000 12.0000000000000000 158
6.3316178100089369  -2.2241306317178231 4.9747461013189964 0.0000000000000000 12.0000000000000000 159
6.3712985205702442  -2.2252404226319911 4.9792081785840612 0.0000000000000000 12.0000000000000000 160
6.4109798830951936  -2.2263313677003480 4.9836012575482096 0.0000000000000000 12.0000000000000000 161
6.4506618788348238  -2.2274039603706184 4.9879270491342664 0.0000000000000000 12.0000000000000000 162
6.4903444893490461  -2.2284586796557546 4.9921872181088744 0.0000000000000000 12.0000000000000000 163
6.5300276965020929  -2.2294959906063041 4.9963833844413630 0.0000000000000000 12.0000000000000000 164
6.5697114824579206  -2.2305163447660852 5.0005171246212310 0.0000000000000000 12.0000000000000000 165
6.6093958296755799  -2.2315201806117502 5.0045899729354435 0.0000000000000000 12.0000000000000000 166
6.6490807209045624  -2.2325079239768288 5.0086034227066163 0.0000000000000000 12.0000000000000000 167
6.6887661391801405  -2.2334799884608318 5.0125589274932754 0.0000000000000000 12.0000000000000000 168
6.7284520678186910  -2.2344367758239629 5.0164579022532569 0.0000000000000000 12.0000000000000000 169
6.7681384904130315  -2.2353786763679473 5.0203017244713051 0.0000000000000000 12.0000000000000000 170
6.8078253908277775  -2.2363060693035099 5.0240917352519174 0.0000000000000000 12.0000000000000000 171
6.8475127531946898  -2.2372193231049704 5.0278292403785434 0.0000000000000000 12.0000000000000000 172
6.8872005619080845  -2.2381187958524338 5.0315155113399852 0.0000000000000000 12.0000000000000000 173
6.9268888016202412  -2.2390048355620551 5.0351517863252022 0.0000000000000000 12.0000000000000000 174
6.9665774572368697  -2.2398777805047714 5.0387392711872252 0.0000000000000000 12.0000000000000000 175
7.0062665139125944  -2.2407379595139538 5.0422791403773255 0.0000000000000000 12.0000000000000000 176
7.0459559570465142  -2.2415856922823862 5.0457725378502598 0.0000000000000000 12.0000000000000000 177
7.0856457722777764  -2.2424212896489442 5.0492205779414707 0.0000000000000000 12.0000000000000000 178
7.1253359454812255  -2.2432450538753668 5.0526243462171356 0.0000000000000000 12.0000000000000000 179
7.1650264627631008  -2.2440572789134672 5.0559849002978927 0.0000000000000000 12.0000000000000000 180
7.2047173104567781  -2.2448582506631687 5.0593032706570833 0.0000000000000000 12.0000000000000000 181
7.2444084751185924  -2.2456482472216273 5.0625804613942726 0.0000000000000000 12.0000000000000000 182
7.2840999435237030  -2.2464275391238693 5.0658174509848584 0.0000000000000000 12.0000000000000000 183
7.3237917026620307  -2.2471963895751506 5.0690151930065026 0.0000000000000000 12.0000000000000000 184
7.3634837397342512  -2.2479550546754230 5.0721746168431245 0.0000000000000000 12.0000000000000000 185
7.4031760421478703  -2.2487037836361283 5.0752966283671341 0.0000000000000000 12.0000000000000000 186
7.4428685975133355  -2.2494428189896443 5.0783821106006686 0.0000000000000000 12.0000000000000000 187
7.4825613936402471  -2.2501723967916525 5.0814319243564237 0.0000000000000000 12.0000000000000000 188
7.5222544185336124  -2.2508927468166195 5.0844469088587356 0.0000000000000000 12.0000000000000000 189
7.5619476603901843  -2.2516040927467387 5.0874278823456418 0.0000000000000000 12.0000000000000000 190
7.6016411075948476  -2.2523066523544939 5.0903756426523961 0.0000000000000000 12.0000000000000000 191
7.6413347487171022  -2.2530006376790945 5.0932909677770581 0.0000000000000000 12.0000000000000000 192
7.6810285725075822  -2.2536862551970382 5.0961746164288870 0.0000000000000000 12.0000000000000000 193
7.7207225678946649  -2.2543637059869526 5.0990273285598118 0.0000000000000000 12.0000000000000000 194
7.7604167239811401  -2.2550331858889772 5.1018498258798122 0.0000000000000000 12.0000000000000000 195
