 # inv_tmp, energy, phys_var, phys_doublon, phys_num, step_i
0.0000000000000000  0.0231151397059676 1.1054268853291740 0.0000000000000000 12.0000000000000000 0
0.0416467755361333  -0.0229255267259573 1.1043938818961654 0.0000000000000000 12.0000000000000000 1
0.0832139431289629  -0.0688674228656399 1.1064355985410308 0.0000000000000000 12.0000000000000000 2
0.1247021097570110  -0.1146631094801423 1.1115297599992500 0.0000000000000000 12.0000000000000000 3
0.1661120391946040  -0.1602660396446085 1.1196423256061225 0.0000000000000000 12.0000000000000000 4
0.2074446457986162  -0.2056307671967266 1.1307278820659885 0.0000000000000000 12.0000000000000000 5
0.2487009873737405  -0.2507131423919596 1.1447301334402333 0.0000000000000000 12.0000000000000000 6
0.2898822572195319  -0.2954704930340231 1.1615824795097718 0.0000000000000000 12.0000000000000000 7
0.3309897754700244  -0.3398617896250226 1.1812086724914217 0.0000000000000000 12.0000000000000000 8
0.3720249798418944  -0.3838477933652671 1.2035235411708012 0.0000000000000000 12.0000000000000000 9
0.4129894159099283  -0.4273911861265248 1.2284337708683863 0.0000000000000000 12.0000000000000000 10
0.4538847270290500  -0.4704566818172107 1.2558387272824880 0.0000000000000000 12.0000000000000000 11
0.4947126440204870  -0.5130111188468333 1.2856313121466272 0.0000000000000000 12.0000000000000000 12
0.5354749747360026  -0.5550235336738263 1.3176988387851341 0.0000000000000000 12.0000000000000000 13
0.5761735936087272  -0.5964652156802570 1.3519239160284617 0.0000000000000000 12.0000000000000000 14
0.6168104312922180  -0.6373097438543556 1.3881853295329636 0.0000000000000000 12.0000000000000000 15
0.6573874644812600  -0.6775330059738596 1.4263589103079233 0.0000000000000000 12.0000000000000000 16
0.6979067059988562  -0.7171132011672134 1.4663183811530174 0.0000000000000000 12.0000000000000000 17
0.7383701952241251  -0.7560308268842733 1.5079361727180873 0.0000000000000000 12.0000000000000000 18
0.7787799889256932  -0.7942686514326174 1.5510842019802409 0.0000000000000000 12.0000000000000000 19
0.8191381525548915  -0.8318116733300971 1.5956346070585397 0.0000000000000000 12.0000000000000000 20
0.8594467520428545  -0.8686470687898504 1.6414604334234744 0.0000000000000000 12.0000000000000000 21
0.8997078461356981  -0.9047641286921911 1.6884362676799241 0.0000000000000000 12.0000000000000000 22
0.9399234792924477  -0.9401541864107082 1.7364388161845297 0.0000000000000000 12.0000000000000000 23
0.9800956751614887  -0.9748105378499140 1.7853474267816289 0.0000000000000000 12.0000000000000000 24
1.0202264306430771  -1.0087283550217512 1.8350445528899242 0.0000000000000000 12.0000000000000000 25
1.0603177105379882  -1.0419045944408820 1.8854161600334585 0.0000000000000000 12.0000000000000000 26
1.1003714427757307  -1.0743379015569994 1.9363520756765287 0.0000000000000000 12.0000000000000000 27
1.1403895142099369  -1.1060285123691751 1.9877462838887268 0.0000000000000000 12.0000000000000000 28
1.1803737669635690  -1.1369781532853298 2.0394971669316670 0.0000000000000000 12.0000000000000000 29
1.2203259953024228  -1.1671899402017685 2.0915076963243440 0.0000000000000000 12.0000000000000000 30
1.2602479430120548  -1.1966682776858479 2.1436855763131608 0.0000000000000000 12.0000000000000000 31
1.3001413012506311  -1.2254187590511554 2.1959433429506401 0.0000000000000000 12.0000000000000000 32
1.3400077068482805  -1.2534480680212314 2.2481984221806024 0.0000000000000000 12.0000000000000000 33
1.3798487410222260  -1.2807638825860890 2.3003731504446772 0.0000000000000000 12.0000000000000000 34
1.4196659284762487  -1.3073747815672188 2.3523947613740570 0.0000000000000000 12.0000000000000000 35
1.4594607368527972  -1.3332901543222475 2.4041953421196478 0.0000000000000000 12.0000000000000000 36
1.4992345765062631  -1.3585201139408676 2.4557117628122040 0.0000000000000000 12.0000000000000000 37
1.5389888005665084  -1.3830754142096859 2.5068855825398320 0.0000000000000000 12.0000000000000000 38
1.5787247052626159  -1.4069673705555528 2.5576629350914555 0.0000000000000000 12.0000000000000000 39
1.6184435304779445  -1.4302077851150692 2.6079943975491511 0.0000000000000000 12.0000000000000000 40
1.6581464605089096  -1.4528088760223201 2.6578348446259961 0.0000000000000000 12.0000000000000000 41
1.6978346250013716  -1.4747832109573946 2.7071432914460822 0.0000000000000000 12.0000000000000000 42
1.7375091000400795  -1.4961436449548484 2.7558827272544386 0.0000000000000000 12.0000000000000000 43
1.7771709093682757  -1.5169032624335663 2.8040199423318417 0.0000000000000000 12.0000000000000000 44
1.8168210257162194  -1.5370753233773209 2.8515253501768210 0.0000000000000000 12.0000000000000000 45
1.8564603722190780  -1.5566732135681802 2.8983728068077217 0.0000000000000000 12.0000000000000000 46
1.8960898239062847  -1.5757103987527121 2.9445394288347542 0.0000000000000000 12.0000000000000000 47
1.9357102092460805  -1.5942003826027467 2.9900054117566759 0.0000000000000000 12.0000000000000000 48
1.9753223117305265  -1.6121566683185247 3.0347538497520889 0.0000000000000000 12.0000000000000000 49
2.0149268714877691  -1.6295927237114232 3.0787705580611426 0.0000000000000000 12.0000000000000000 50
2.0545245869097584  -1.6465219495960135 3.1220438988915045 0.0000000000000000 12.0000000000000000 51
2.0941161162849715  -1.6629576513165394 3.1645646116326569 0.0000000000000000 12.0000000000000000 52
2.1337020794269379  -1.6789130132305612 3.2063256480252917 0.0000000000000000 12.0000000000000000 53
2.1732830592905361  -1.6944010759723116 3.2473220128077260 0.0000000000000000 12.0000000000000000 54
2.2128596035691137  -1.7094347163197152 3.2875506102485197 0.0000000000000000 12.0000000000000000 55
2.2524322262664702  -1.7240266294920321 3.3270100968733334 0.0000000000000000 12.0000000000000000 56
2.2920014092386447  -1.7381893137092039 3.3657007406043635 0.0000000000000000 12.0000000000000000 57
2.3315676037012940  -1.7519350568490704 3.4036242864512967 0.0000000000000000 12.0000000000000000 58
2.3711312316991742  -1.7652759250444909 3.4407838288233514 0.0000000000000000 12.0000000000000000 59
2.4106926875349162  -1.7782237530688716 3.4771836904717959 0.0000000000000000 12.0000000000000000 60
2.4502523391548969  -1.7907901363654362 3.5128293080206525 0.0000000000000000 12.0000000000000000 61
2.4898105294905322  -1.8029864245826843 3.5477271239992110 0.0000000000000000 12.0000000000000000 62
2.5293675777537912  -1.8148237164858774 3.5818844852532781 0.0000000000000000 12.0000000000000000 63
2.5689237806861733  -1.8263128561215984 3.6153095475812922 0.0000000000000000 12.0000000000000000 64
2.6084794137607226  -1.8374644301198941 3.6480111864168938 0.0000000000000000 12.0000000000000000 65
2.6480347323369928  -1.8482887660257004 3.6799989133596065 0.0000000000000000 12.0000000000000000 66
2.6875899727691639  -1.8587959315582685 3.7112827983401822 0.0000000000000000 12.0000000000000000 67
2.7271453534677126  -1.8689957347043067 3.7418733971959539 0.0000000000000000 12.0000000000000000 68
2.7667010759152730  -1.8788977245571026 3.7717816844237428 0.0000000000000000 12.0000000000000000 69
2.8062573256374903  -1.8885111928203302 3.8010189908731702 0.0000000000000000 12.0000000000000000 70
2.8458142731297804  -1.8978451759013473 3.8295969461410979 0.0000000000000000 12.0000000000000000 71
2.8853720747410634  -1.9069084575245712 3.8575274254279872 0.0000000000000000 12.0000000000000000 72
2.9249308735156174  -1.9157095718010759 3.8848225006189683 0.0000000000000000 12.0000000000000000 73
2.9644907999942545  -1.9242568066957260 3.9114943953559687 0.0000000000000000 12.0000000000000000 74
3.0040519729761010  -1.9325582078380796 3.9375554438719496 0.0000000000000000 12.0000000000000000 75
3.0436145002423025  -1.9406215826279158 3.9630180533644781 0.0000000000000000 12.0000000000000000 76
3.0831784792429717  -1.9484545045904738 3.9878946696922162 0.0000000000000000 12.0000000000000000 77
3.1227439977487554  -1.9560643179406689 4.0121977461856915 0.0000000000000000 12.0000000000000000 78
3.1623111344683683  -1.9634581423191120 4.0359397153712449 0.0000000000000000 12.0000000000000000 79
3.2018799596334504  -1.9706428776663893 4.0591329634155056 0.0000000000000000 12.0000000000000000 80
3.2414505355520911  -1.9776252092052402 4.0817898071060812 0.0000000000000000 12.0000000000000000 81
3.2810229171323604  -1.9844116125032296 4.1039224731927693 0.0000000000000000 12.0000000000000000 82
3.3205971523771347  -1.9910083585913561 4.1255430799221067 0.0000000000000000 12.0000000000000000 83
3.3601732828515019  -1.9974215191164968 4.1466636206067697 0.0000000000000000 12.0000000000000000 84
3.3997513441240046  -2.0036569715080130 4.1672959490796098 0.0000000000000000 12.0000000000000000 85
3.4393313661829219  -2.0097204041409475 4.1874517668905735 0.0000000000000000 12.0000000000000000 86
3.4789133738287816  -2.0156173214802164 4.2071426121126692 0.0000000000000000 12.0000000000000000 87
3.5184973870442433  -2.0213530491920935 4.2263798496311482 0.0000000000000000 12.0000000000000000 88
3.5580834213424537  -2.0269327392108081 4.2451746627975782 0.0000000000000000 12.0000000000000000 89
3.5976714880949485  -2.0323613747497049 4.2635380463377848 0.0000000000000000 12.0000000000000000 90
3.6372615948401328  -2.0376437752477314 4.2814808004098328 0.0000000000000000 12.0000000000000000 91
3.6768537455733146  -2.0427846012432984 4.2990135257146109 0.0000000000000000 12.0000000000000000 92
3.7164479410192586  -2.0477883591686634 4.3161466195684612 0.0000000000000000 12.0000000000000000 93
3.7560441788881613  -2.0526594060590808 4.3328902728529073 0.0000000000000000 12.0000000000000000 94
3.7956424541159244  -2.0574019541718207 4.3492544677628606 0.0000000000000000 12.0000000000000000 95
3.8352427590895610  -2.0620200755110547 4.3652489762796334 0.0000000000000000 12.0000000000000000 96
3.8748450838585362  -2.0665177062553779 4.3808833593008405 0.0000000000000000 12.0000000000000000 97
3.9144494163328041  -2.0708986510853387 4.3961669663637917 0.0000000000000000 12.0000000000000000 98
3.9540557424682667  -2.0751665874090901 4.4111089359037381 0.0000000000000000 12.0000000000000000 99
3.9936640464403519  -2.0793250694847023 4.4257181959928387 0.0000000000000000 12.0000000000000000 100
4.0332743108063687  -2.0833775324382366 4.4400034655094984 0.0000000000000000 12.0000000000000000 101
4.0728865166572801  -2.0873272961771434 4.4539732556919427 0.0000000000000000 12.0000000000000000 102
4.1125006437594687  -2.0911775691988241 4.4676358720331484 0.0000000000000000 12.0000000000000000 103
4.1521166706870938  -2.0949314522946842 4.4809994164779328 0.0000000000000000 12.0000000000000000 104
4.1917345749455590  -2.0985919421502084 4.4940717898858678 0.0000000000000000 12.0000000000000000 105
4.2313543330866077  -2.1021619348418672 4.5068606947268721 0.0000000000000000 12.0000000000000000 106
4.2709759208155429  -2.1056442292319737 4.5193736379789620 0.0000000000000000 12.0000000000000000 107
4.3105993130910258  -2.1090415302626795 4.5316179342000877 0.0000000000000000 12.0000000000000000 108
4.3502244842178905  -2.1123564521506255 4.5436007087487127 0.0000000000000000 12.0000000000000000 109
4.3898514079333868  -2.1155915214837608 4.5553289011294957 0.0000000000000000 12.0000000000000000 110
4.4294800574872637  -2.1187491802221139 4.5668092684430173 0.0000000000000000 12.0000000000000000 111
4.4691104057160320  -2.1218317886042879 4.5780483889199575 0.0000000000000000 12.0000000000000000 112
4.5087424251117891  -2.1248416279616098 4.5890526655221766 0.0000000000000000 12.0000000000000000 113
4.5483760878859245  -2.1277809034419457 4.5998283295947280 0.0000000000000000 12.0000000000000000 114
4.5880113660280148  -2.1306517466451407 4.6103814445541413 0.0000000000000000 12.0000000000000000 115
4.6276482313602205  -2.1334562181722769 4.6207179096000921 0.0000000000000000 12.0000000000000000 116
4.6672866555874624  -2.1361963100907628 4.6308434634384961 0.0000000000000000 12.0000000000000000 117
4.7069266103436211  -2.1388739483174604 4.6407636880054843 0.0000000000000000 12.0000000000000000 118
4.7465680672340458  -2.1414909949219507 4.6504840121826847 0.0000000000000000 12.0000000000000000 119
4.7862109978745782  -2.1440492503521544 4.6600097154953923 0.0000000000000000 12.0000000000000000 120
4.8258553739273351  -2.1465504555843560 4.6693459317859070 0.0000000000000000 12.0000000000000000 121
4.8655011671334387  -2.1489962941998773 4.6784976528554569 0.0000000000000000 12.0000000000000000 122
4.9051483493429222  -2.1513883943904295 4.6874697320686449 0.0000000000000000 12.0000000000000000 123
4.9447968925419623  -2.1537283308943236 4.6962668879152583 0.0000000000000000 12.0000000000000000 124
4.9844467688776408  -2.1560176268655460 4.7048937075248585 0.0000000000000000 12.0000000000000000 125
5.0240979506804004  -2.1582577556777784 4.7133546501301389 0.0000000000000000 12.0000000000000000 126
5.0637504104843165  -2.1604501426653981 4.7216540504757258 0.0000000000000000 12.0000000000000000 127
5.1034041210453909  -2.1625961668033602 4.7297961221693647 0.0000000000000000 12.0000000000000000 128
5.1430590553579441  -2.1646971623280042 4.7377849609732134 0.0000000000000000 12.0000000000000000 129
5.1827151866692773  -2.1667544203006024 4.7456245480330024 0.0000000000000000 12.0000000000000000 130
5.2223724884927085  -2.1687691901155315 4.7533187530435113 0.0000000000000000 12.0000000000000000 131
5.2620309346191059  -2.1707426809549455 4.7608713373490890 0.0000000000000000 12.0000000000000000 132
5.3016904991270071  -2.1726760631916147 4.7682859569780138 0.0000000000000000 12.0000000000000000 133
5.3413511563914602  -2.1745704697417589 4.7755661656101402 0.0000000000000000 12.0000000000000000 134
5.3810128810916442  -2.1764269973695303 4.7827154174772799 0.0000000000000000 12.0000000000000000 135
5.4206756482173777  -2.1782467079447647 4.7897370701960407 0.0000000000000000 12.0000000000000000 136
5.4603394330746013  -2.1800306296556315 4.7966343875331336 0.0000000000000000 12.0000000000000000 137
5.5000042112899061  -2.1817797581777212 4.8034105421031903 0.0000000000000000 12.0000000000000000 138
5.5396699588141685  -2.1834950578010921 4.8100686179995087 0.0000000000000000 12.0000000000000000 139
5.5793366519253969  -2.1851774625167275 4.8166116133580701 0.0000000000000000 12.0000000000000000 140
5.6190042672308138  -2.1868278770638292 4.8230424428554128 0.0000000000000000 12.0000000000000000 141
5.6586727816682494  -2.1884471779393375 4.8293639401410680 0.0000000000000000 12.0000000000000000 142
5.6983421725069228  -2.1900362143710019 4.8355788602053744 0.0000000000000000 12.0000000000000000 143
5.7380124173476261  -2.1915958092553032 4.8416898816834157 0.0000000000000000 12.0000000000000000 144
5.7776834941223880  -2.1931267600614879 4.8476996090962006 0.0000000000000000 12.0000000000000000 145
5.8173553810936589  -2.1946298397028996 4.8536105750299177 0.0000000000000000 12.0000000000000000 146
5.8570280568530446  -2.1961057973768474 4.8594252422544848 0.0000000000000000 12.0000000000000000 147
5.8967015003196570  -2.1975553593740464 4.8651460057823543 0.0000000000000000 12.0000000000000000 148
5.9363756907380836  -2.1989792298588413 4.8707751948688651 0.0000000000000000 12.0000000000000000 149
5.9760506076760445  -2.2003780916211966 4.8763150749552562 0.0000000000000000 12.0000000000000000 150
6.0157262310217465  -2.2017526068014854 4.8817678495554686 0.0000000000000000 12.0000000000000000 151
6.0554025409809764  -2.2031034175891282 4.8871356620881397 0.0000000000000000 12.0000000000000000 152
6.0950795180739625  -2.2044311468959519 4.8924205976548407 0.0000000000000000 12.0000000000000000 153
6.1347571431320018  -2.2057363990052767 4.8976246847659670 0.0000000000000000 12.0000000000000000 154
6.1744353972939399  -2.2070197601975434 4.9027498970153616 0.0000000000000000 12.0000000000000000 155
6.2141142620024485  -2.2082817993534154 4.9077981547051213 0.0000000000000000 12.0000000000000000 156
6.2537937190001873  -2.2095230685351330 4.9127713264216002 0.0000000000000000 12.0000000000000000 157
6.2934737503258287  -2.2107441035469364 4.9176712305641210 0.0000000000000000 12.0000000000000000 158
6.3331543383099804  -2.2119454244753420 4.9224996368273635 0.0000000000000000 12.0000000000000000 159
6.3728354655710220  -2.2131275362100040 4.9272582676388605 0.0000000000000000 12.0000000000000000 160
6.4125171150108597  -2.2142909289458714 4.9319487995526909 0.0000000000000000 12.0000000000000000 161
6.4521992698106327  -2.2154360786673535 4.9365728646006000 0.0000000000000000 12.0000000000000000 162
6.4918819134263597  -2.2165634476151457 4.9411320516017527 0.0000000000000000 12.0000000000000000 163
6.5315650295845638  -2.2176734847363568 4.9456279074322316 0.0000000000000000 12.0000000000000000 164
6.5712486022778664  -2.2187666261185703 4.9500619382554607 0.0000000000000000 12.0000000000000000 165
6.6109326157605652  -2.2198432954084106 4.9544356107146381 0.0000000000000000 12.0000000000000000 166
6.6506170545442176  -2.2209039042152208 4.9587503530883454 0.0000000000000000 12.0000000000000000 167
6.6903019033932143  -2.2219488525003861 4.9630075564103153 0.0000000000000000 12.0000000000000000 168
6.7299871473203812  -2.2229785289528285 4.9672085755544977 0.0000000000000000 12.0000000000000000 169
6.7696727715825835  -2.2239933113512018 4.9713547302864107 0.0000000000000000 12.0000000000000000 170
6.8093587616763651  -2.2249935669132781 4.9754473062818292 0.0000000000000000 12.0000000000000000 171
6.8490451033336202  -2.2259796526329940 4.9794875561137202 0.0000000000000000 12.0000000000000000 172
6.8887317825172891  -2.2269519156056066 4.9834767002084837 0.0000000000000000 12.0000000000000000 173
6.9284187854171151  -2.2279106933414328 4.9874159277723926 0.0000000000000000 12.0000000000000000 174
6.9681060984454222  -2.2288563140685627 4.9913063976891072 0.0000000000000000 12.0000000000000000 175
7.0077937082329598  -2.2297890970249501 4.9951492393892689 0.0000000000000000 12.0000000000000000 176
7.0474816016247948  -2.2307093527403277 4.9989455536929057 0.0000000000000000 12.0000000000000000 177
7.0871697656762542  -2.2316173833082535 5.0026964136256131 0.0000000000000000 12.0000000000000000 178
7.1268581876489270  -2.2325134826486943 5.0064028652092789 0.0000000000000000 12.0000000000000000 179
7.1665468550067368  -2.2333979367614964 5.0100659282281077 0.0000000000000000 12.0000000000000000 180
7.2062357554120551  -2.2342710239710684 5.0136865969708762 0.0000000000000000 12.0000000000000000 181
7.2459248767218956  -2.2351330151625906 5.0172658409499817 0.0000000000000000 12.0000000000000000 182
7.2856142069841718  -2.2359841740100963 5.0208046055981654 0.0000000000000000 12.0000000000000000 183
7.3253037344340139  -2.2368247571966902 5.0243038129435336 0.0000000000000000 12.0000000000000000 184
7.3649934474901473  -2.2376550146272205 5.0277643622636745 0.0000000000000000 12.0000000000000000 185
7.4046833347513621  -2.2384751896336459 5.0311871307193803 0.0000000000000000 12.0000000000000000 186
7.4443733849930229  -2.2392855191734196 5.0345729739688236 0.0000000000000000 12.0000000000000000 187
7.4840635871636687  -2.2400862340210921 5.0379227267626083 0.0000000000000000 12.0000000000000000 188
7.5237539303816696  -2.2408775589534131 5.0412372035205335 0.0000000000000000 12.0000000000000000 189
7.5634444039319533  -2.2416597129281666 5.0445171988904605 0.0000000000000000 12.0000000000000000 190
7.6031349972628037  -2.2424329092569537 5.0477634882899896 0.0000000000000000 12.0000000000000000 191
7.6428256999827333  -2.2431973557721636 5.0509768284314669 0.0000000000000000 12.0000000000000000 192
7.6825165018574069  -2.2439532549883214 5.0541579578307978 0.0000000000000000 12.0000000000000000 193
7.7222073928066557  -2.2447008042580561 5.0573075973007668 0.0000000000000000 12.0000000000000000 194
7.7618983629015288  -2.2454401959228205 5.0604264504291185 0.0000000000000000 12.0000000000000000 195
